0.00025	-0.06
0.0005	-0.065
0.00075	-0.06
0.001	-0.075
0.00125	-0.065
0.0015	-0.07
0.00175	-0.07
0.002	-0.09
0.00225	-0.08
0.0025	-0.095
0.00275	-0.08
0.003	-0.095
0.00325	-0.08
0.0035	-0.095
0.00375	-0.085
0.004	-0.09
0.00425	-0.09
0.0045	-0.1
0.00475	-0.085
0.005	-0.105
0.00525	-0.09
0.0055	-0.045
0.00575	0.005
0.006	0.015
0.00625	0.045
0.0065	0.155
0.00675	0.14
0.007	0.045
0.00725	0.005
0.0075	-0.04
0.00775	-0.085
0.008	-0.2
0.00825	-0.195
0.0085	-0.2
0.00875	-0.2
0.009	-0.24
0.00925	-0.13
0.0095	0.34
0.00975	1.155
0.01	1.47
0.01025	-0.155
0.0105	-0.825
0.01075	-0.59
0.011	-0.35
0.01125	-0.155
0.0115	-0.17
0.01175	-0.14
0.012	-0.155
0.01225	-0.115
0.0125	-0.125
0.01275	-0.09
0.013	-0.095
0.01325	-0.065
0.0135	-0.055
0.01375	-0.015
0.014	-0.005
0.01425	0.035
0.0145	0.045
0.01475	0.09
0.015	0.11
0.01525	0.15
0.0155	0.18
0.01575	0.205
0.016	0.225
0.01625	0.23
0.0165	0.22
0.01675	0.235
0.017	0.23
0.01725	0.2
0.0175	0.17
0.01775	0.12
0.018	0.075
0.01825	0.04
0.0185	0.02
0.01875	0.005
0.019	-0.005
0.01925	-0.005
0.0195	-0.01
0.01975	-0.015
0.02	-0.01
0.02025	0
0.0205	-0.005
0.02075	-0.02
0.021	-0.02
0.02125	-0.015
0.0215	-0.025
0.02175	-0.035
0.022	-0.045
0.02225	-0.045
0.0225	-0.06
0.02275	-0.065
0.023	-0.07
0.02325	-0.055
0.0235	-0.06
0.02375	-0.08
0.024	-0.075
0.02425	-0.09
0.0245	-0.065
0.02475	-0.075
0.025	-0.08
0.02525	-0.08
0.0255	-0.085
0.02575	-0.09
0.026	-0.075
0.02625	-0.085
0.0265	-0.095
0.02675	-0.105
0.027	-0.09
0.02725	-0.095
0.0275	-0.07
0.02775	-0.045
0.028	0.005
0.02825	0.03
0.0285	0.07
0.02875	0.195
0.029	0.145
0.02925	0.05
0.0295	-0.015
0.02975	-0.025
0.03	-0.115
0.03025	-0.18
0.0305	-0.19
0.03075	-0.185
0.031	-0.185
0.03125	-0.215
0.0315	0.01
0.03175	0.575
0.032	1.185
0.03225	0.96
0.0325	-0.16
0.03275	-0.74
0.033	-0.64
0.03325	-0.35
0.0335	-0.175
0.03375	-0.145
0.034	-0.15
0.03425	-0.145
0.0345	-0.105
0.03475	-0.12
0.035	-0.09
0.03525	-0.085
0.0355	-0.07
0.03575	-0.04
0.036	-0.02
0.03625	0.005
0.0365	0.02
0.03675	0.045
0.037	0.08
0.03725	0.115
0.0375	0.14
0.03775	0.165
0.038	0.21
0.03825	0.19
0.0385	0.22
0.03875	0.21
0.039	0.215
0.03925	0.215
0.0395	0.16
0.03975	0.135
0.04	0.1
0.04025	0.05
0.0405	0.035
0.04075	-0.005
0.041	0.005
0.04125	-0.005
0.0415	-0.015
0.04175	-0.02
0.042	-0.01
0.04225	0
0.0425	-0.02
0.04275	-0.005
0.043	-0.04
0.04325	-0.035
0.0435	-0.05
0.04375	-0.04
0.044	-0.055
0.04425	-0.075
0.0445	-0.05
0.04475	-0.075
0.045	-0.09
0.04525	-0.08
0.0455	-0.09
0.04575	-0.08
0.046	-0.075
0.04625	-0.085
0.0465	-0.085
0.04675	-0.095
0.047	-0.095
0.04725	-0.105
0.0475	-0.08
0.04775	-0.115
0.048	-0.1
0.04825	-0.095
0.0485	-0.1
0.04875	-0.075
0.049	-0.005
0.04925	0.01
0.0495	0.055
0.04975	0.185
0.05	0.145
0.05025	0.075
0.0505	-0.005
0.05075	-0.025
0.051	-0.11
0.05125	-0.175
0.0515	-0.18
0.05175	-0.22
0.052	-0.175
0.05225	-0.24
0.0525	-0.03
0.05275	0.53
0.053	1.21
0.05325	1.22
0.0535	-0.105
0.05375	-0.795
0.054	-0.69
0.05425	-0.375
0.0545	-0.165
0.05475	-0.155
0.055	-0.135
0.05525	-0.15
0.0555	-0.12
0.05575	-0.12
0.056	-0.09
0.05625	-0.095
0.0565	-0.05
0.05675	-0.05
0.057	-0.01
0.05725	-0.005
0.0575	0.03
0.05775	0.08
0.058	0.075
0.05825	0.145
0.0585	0.155
0.05875	0.2
0.059	0.2
0.05925	0.24
0.0595	0.235
0.05975	0.245
0.06	0.245
0.06025	0.215
0.0605	0.18
0.06075	0.15
0.061	0.09
0.06125	0.035
0.0615	0.025
0.06175	0
0.062	-0.015
0.06225	-0.03
0.0625	0
0.06275	-0.02
0.063	-0.005
0.06325	-0.025
0.0635	-0.03
0.06375	-0.015
0.064	-0.01
0.06425	-0.035
0.0645	-0.04
0.06475	-0.05
0.065	-0.045
0.06525	-0.04
0.0655	-0.075
0.06575	-0.065
0.066	-0.095
0.06625	-0.085
0.0665	-0.085
0.06675	-0.09
0.067	-0.1
0.06725	-0.1
0.0675	-0.08
0.06775	-0.105
0.068	-0.105
0.06825	-0.1
0.0685	-0.105
0.06875	-0.095
0.069	-0.1
0.06925	-0.09
0.0695	-0.035
0.06975	0.01
0.07	0.035
0.07025	0.07
0.0705	0.19
0.07075	0.125
0.071	0.045
0.07125	-0.035
0.0715	-0.06
0.07175	-0.155
0.072	-0.21
0.07225	-0.225
0.0725	-0.2
0.07275	-0.215
0.073	-0.265
0.07325	0.07
0.0735	0.865
0.07375	1.495
0.074	0.625
0.07425	-0.44
0.0745	-0.815
0.07475	-0.6
0.075	-0.31
0.07525	-0.175
0.0755	-0.18
0.07575	-0.165
0.076	-0.135
0.07625	-0.135
0.0765	-0.115
0.07675	-0.105
0.077	-0.085
0.07725	-0.06
0.0775	-0.03
0.07775	-0.02
0.078	0.015
0.07825	0.05
0.0785	0.07
0.07875	0.105
0.079	0.165
0.07925	0.2
0.0795	0.205
0.07975	0.235
0.08	0.235
0.08025	0.265
0.0805	0.26
0.08075	0.235
0.081	0.215
0.08125	0.17
0.0815	0.125
0.08175	0.09
0.082	0.025
0.08225	-0.015
0.0825	-0.03
0.08275	-0.035
0.083	-0.04
0.08325	-0.04
0.0835	-0.035
0.08375	-0.04
0.084	-0.02
0.08425	-0.04
0.0845	-0.04
0.08475	-0.03
0.085	-0.045
0.08525	-0.065
0.0855	-0.06
0.08575	-0.06
0.086	-0.09
0.08625	-0.08
0.0865	-0.095
0.08675	-0.085
0.087	-0.105
0.08725	-0.09
0.0875	-0.1
0.08775	-0.105
0.088	-0.115
0.08825	-0.1
0.0885	-0.115
0.08875	-0.11
0.089	-0.135
0.08925	-0.095
0.0895	-0.125
0.08975	-0.105
0.09	-0.085
0.09025	-0.015
0.0905	0.02
0.09075	0.03
0.091	0.135
0.09125	0.16
0.0915	0.105
0.09175	0.03
0.092	-0.05
0.09225	-0.05
0.0925	-0.17
0.09275	-0.205
0.093	-0.215
0.09325	-0.175
0.0935	-0.21
0.09375	-0.215
0.094	0.175
0.09425	1.09
0.0945	1.7
0.09475	0.335
0.095	-0.615
0.09525	-0.705
0.0955	-0.46
0.09575	-0.175
0.096	-0.165
0.09625	-0.145
0.0965	-0.155
0.09675	-0.115
0.097	-0.12
0.09725	-0.105
0.0975	-0.105
0.09775	-0.085
0.098	-0.06
0.09825	-0.015
0.0985	-0.005
0.09875	0.02
0.099	0.05
0.09925	0.08
0.0995	0.105
0.09975	0.18
0.1	0.205
0.10025	0.24
0.1005	0.235
0.10075	0.27
0.101	0.27
0.10125	0.28
0.1015	0.26
0.10175	0.23
0.102	0.175
0.10225	0.135
0.1025	0.09
0.10275	0.045
0.103	0
0.10325	-0.005
0.1035	-0.025
0.10375	-0.025
0.104	-0.025
0.10425	-0.02
0.1045	0
0.10475	-0.005
0.105	-0.005
0.10525	-0.005
0.1055	-0.005
0.10575	-0.01
0.106	-0.025
0.10625	-0.02
0.1065	-0.04
0.10675	-0.04
0.107	-0.04
0.10725	-0.05
0.1075	-0.06
0.10775	-0.05
0.108	-0.065
0.10825	-0.06
0.1085	-0.07
0.10875	-0.06
0.109	-0.09
0.10925	-0.08
0.1095	-0.095
0.10975	-0.085
0.11	-0.1
0.11025	-0.09
0.1105	-0.095
0.11075	-0.085
0.111	-0.1
0.11125	-0.075
0.1115	-0.095
0.11175	-0.08
0.112	-0.075
0.11225	0
0.1125	0.03
0.11275	0.035
0.113	0.135
0.11325	0.145
0.1135	0.07
0.11375	0.015
0.114	-0.045
0.11425	-0.055
0.1145	-0.185
0.11475	-0.19
0.115	-0.22
0.11525	-0.18
0.1155	-0.21
0.11575	-0.185
0.116	0.22
0.11625	1.15
0.1165	1.72
0.11675	0.155
0.117	-0.7
0.11725	-0.66
0.1175	-0.405
0.11775	-0.15
0.118	-0.16
0.11825	-0.135
0.1185	-0.145
0.11875	-0.12
0.119	-0.125
0.11925	-0.09
0.1195	-0.09
0.11975	-0.055
0.12	-0.04
0.12025	-0.015
0.1205	0
0.12075	0.03
0.121	0.05
0.12125	0.095
0.1215	0.11
0.12175	0.165
0.122	0.19
0.12225	0.23
0.1225	0.245
0.12275	0.255
0.123	0.255
0.12325	0.265
0.1235	0.255
0.12375	0.23
0.124	0.185
0.12425	0.145
0.1245	0.1
0.12475	0.06
0.125	0.025
0.12525	0.025
0.1255	0.01
0.12575	0.01
0.126	0.01
0.12625	0.015
0.1265	0.01
0.12675	0.025
0.127	0.02
0.12725	0.02
0.1275	0.02
0.12775	0.015
0.128	0
0.12825	0
0.1285	-0.01
0.12875	-0.015
0.129	-0.02
0.12925	-0.03
0.1295	-0.035
0.12975	-0.035
0.13	-0.045
0.13025	-0.04
0.1305	-0.045
0.13075	-0.045
0.131	-0.055
0.13125	-0.045
0.1315	-0.055
0.13175	-0.045
0.132	-0.06
0.13225	-0.05
0.1325	-0.06
0.13275	-0.055
0.133	-0.08
0.13325	-0.065
0.1335	-0.09
0.13375	-0.075
0.134	-0.09
0.13425	-0.07
0.1345	-0.075
0.13475	-0.065
0.135	-0.08
0.13525	-0.065
0.1355	-0.03
0.13575	0.025
0.136	0.04
0.13625	0.065
0.1365	0.18
0.13675	0.145
0.137	0.055
0.13725	0.015
0.1375	-0.035
0.13775	-0.06
0.138	-0.175
0.13825	-0.17
0.1385	-0.195
0.13875	-0.175
0.139	-0.22
0.13925	-0.115
0.1395	0.355
0.13975	1.24
0.14	1.595
0.14025	-0.115
0.1405	-0.815
0.14075	-0.565
0.141	-0.3
0.14125	-0.13
0.1415	-0.16
0.14175	-0.13
0.142	-0.135
0.14225	-0.11
0.1425	-0.12
0.14275	-0.09
0.143	-0.085
0.14325	-0.055
0.1435	-0.04
0.14375	-0.005
0.144	0
0.14425	0.04
0.1445	0.05
0.14475	0.095
0.145	0.125
0.14525	0.17
0.1455	0.19
0.14575	0.22
0.146	0.23
0.14625	0.245
0.1465	0.25
0.14675	0.26
0.147	0.24
0.14725	0.22
0.1475	0.175
0.14775	0.135
0.148	0.085
0.14825	0.055
0.1485	0.02
0.14875	0.015
0.149	0.01
0.14925	0.01
0.1495	0
0.14975	0
0.15	0
0.15025	0.01
0.1505	0.005
0.15075	0.02
0.151	0.01
0.15125	0
0.1515	-0.01
0.15175	-0.015
0.152	-0.02
0.15225	-0.02
0.1525	-0.025
0.15275	-0.035
0.153	-0.03
0.15325	-0.045
0.1535	-0.05
0.15375	-0.05
0.154	-0.055
0.15425	-0.065
0.1545	-0.065
0.15475	-0.06
0.155	-0.065
0.15525	-0.07
0.1555	-0.06
0.15575	-0.06
0.156	-0.055
0.15625	-0.06
0.1565	-0.065
0.15675	-0.08
0.157	-0.065
0.15725	-0.08
0.1575	-0.065
0.15775	-0.075
0.158	-0.07
0.15825	-0.085
0.1585	-0.07
0.15875	-0.085
0.159	-0.075
0.15925	-0.085
0.1595	-0.06
0.15975	-0.045
0.16	0.02
0.16025	0.04
0.1605	0.055
0.16075	0.18
0.161	0.155
0.16125	0.06
0.1615	0.02
0.16175	-0.025
0.162	-0.055
0.16225	-0.18
0.1625	-0.16
0.16275	-0.17
0.163	-0.165
0.16325	-0.195
0.1635	-0.1
0.16375	0.35
0.164	1.115
0.16425	1.495
0.1645	-0.04
0.16475	-0.73
0.165	-0.62
0.16525	-0.365
0.1655	-0.13
0.16575	-0.15
0.166	-0.135
0.16625	-0.15
0.1665	-0.12
0.16675	-0.13
0.167	-0.105
0.16725	-0.09
0.1675	-0.055
0.16775	-0.06
0.168	-0.035
0.16825	-0.015
0.1685	0.02
0.16875	0.045
0.169	0.065
0.16925	0.095
0.1695	0.145
0.16975	0.18
0.17	0.215
0.17025	0.2
0.1705	0.225
0.17075	0.235
0.171	0.245
0.17125	0.235
0.1715	0.225
0.17175	0.175
0.172	0.13
0.17225	0.09
0.1725	0.05
0.17275	0.035
0.173	0.015
0.17325	0.005
0.1735	0
0.17375	-0.005
0.174	0
0.17425	0
0.1745	0
0.17475	0
0.175	-0.005
0.17525	-0.005
0.1755	-0.02
0.17575	-0.02
0.176	-0.04
0.17625	-0.05
0.1765	-0.06
0.17675	-0.06
0.177	-0.06
0.17725	-0.07
0.1775	-0.065
0.17775	-0.075
0.178	-0.07
0.17825	-0.065
0.1785	-0.075
0.17875	-0.075
0.179	-0.075
0.17925	-0.09
0.1795	-0.075
0.17975	-0.085
0.18	-0.08
0.18025	-0.09
0.1805	-0.075
0.18075	-0.09
0.181	-0.08
0.18125	-0.09
0.1815	-0.08
0.18175	-0.1
0.182	-0.085
0.18225	-0.1
0.1825	-0.075
0.18275	-0.085
0.183	-0.09
0.18325	-0.075
0.1835	-0.015
0.18375	0.025
0.184	0.055
0.18425	0.155
0.1845	0.16
0.18475	0.095
0.185	0.015
0.18525	-0.035
0.1855	-0.05
0.18575	-0.175
0.186	-0.17
0.18625	-0.19
0.1865	-0.175
0.18675	-0.2
0.187	-0.105
0.18725	0.335
0.1875	1.095
0.18775	1.47
0.188	0.065
0.18825	-0.66
0.1885	-0.69
0.18875	-0.44
0.189	-0.185
0.18925	-0.16
0.1895	-0.135
0.18975	-0.135
0.19	-0.115
0.19025	-0.115
0.1905	-0.11
0.19075	-0.095
0.191	-0.055
0.19125	-0.05
0.1915	-0.015
0.19175	-0.005
0.192	0.045
0.19225	0.05
0.1925	0.095
0.19275	0.12
0.193	0.165
0.19325	0.185
0.1935	0.21
0.19375	0.225
0.194	0.245
0.19425	0.24
0.1945	0.24
0.19475	0.235
0.195	0.21
0.19525	0.165
0.1955	0.125
0.19575	0.07
0.196	0.045
0.19625	0.01
0.1965	0.02
0.19675	0.005
0.197	0
0.19725	0
0.1975	0
0.19775	0
0.198	0
0.19825	-0.005
0.1985	-0.01
0.19875	-0.005
0.199	-0.025
0.19925	-0.005
0.1995	-0.04
0.19975	-0.04
0.2	-0.045
0.20025	-0.045
0.2005	-0.04
0.20075	-0.055
0.201	-0.065
0.20125	-0.05
0.2015	-0.065
0.20175	-0.065
0.202	-0.065
0.20225	-0.065
0.2025	-0.07
0.20275	-0.065
0.203	-0.07
0.20325	-0.065
0.2035	-0.07
0.20375	-0.07
0.204	-0.085
0.20425	-0.06
0.2045	-0.09
0.20475	-0.065
0.205	-0.085
0.20525	-0.08
0.2055	-0.085
0.20575	-0.05
0.206	-0.09
0.20625	-0.075
0.2065	-0.055
0.20675	0.005
0.207	0.055
0.20725	0.06
0.2075	0.16
0.20775	0.155
0.208	0.08
0.20825	0.015
0.2085	-0.02
0.20875	-0.045
0.209	-0.17
0.20925	-0.17
0.2095	-0.175
0.20975	-0.16
0.21	-0.2
0.21025	-0.105
0.2105	0.36
0.21075	1.16
0.211	1.55
0.21125	0.07
0.2115	-0.69
0.21175	-0.66
0.212	-0.41
0.21225	-0.155
0.2125	-0.155
0.21275	-0.135
0.213	-0.135
0.21325	-0.105
0.2135	-0.11
0.21375	-0.085
0.214	-0.09
0.21425	-0.065
0.2145	-0.045
0.21475	-0.005
0.215	0
0.21525	0.04
0.2155	0.065
0.21575	0.1
0.216	0.12
0.21625	0.175
0.2165	0.19
0.21675	0.23
0.217	0.255
0.21725	0.27
0.2175	0.265
0.21775	0.275
0.218	0.245
0.21825	0.215
0.2185	0.175
0.21875	0.14
0.219	0.095
0.21925	0.04
0.2195	0.025
0.21975	0.015
0.22	0
0.22025	0
0.2205	0
0.22075	0
0.221	0
0.22125	0
0.2215	0
0.22175	0
0.222	-0.005
0.22225	-0.01
0.2225	-0.01
0.22275	-0.015
0.223	-0.03
0.22325	-0.035
0.2235	-0.045
0.22375	-0.045
0.224	-0.05
0.22425	-0.045
0.2245	-0.065
0.22475	-0.07
0.225	-0.075
0.22525	-0.07
0.2255	-0.09
0.22575	-0.085
0.226	-0.09
0.22625	-0.07
0.2265	-0.085
0.22675	-0.085
0.227	-0.095
0.22725	-0.085
0.2275	-0.09
0.22775	-0.085
0.228	-0.09
0.22825	-0.09
0.2285	-0.1
0.22875	-0.09
0.229	-0.105
0.22925	-0.09
0.2295	-0.1
0.22975	-0.085
0.23	-0.055
0.23025	0
0.2305	0.035
0.23075	0.05
0.231	0.17
0.23125	0.135
0.2315	0.06
0.23175	0.01
0.232	-0.035
0.23225	-0.075
0.2325	-0.19
0.23275	-0.185
0.233	-0.205
0.23325	-0.18
0.2335	-0.225
0.23375	-0.11
0.234	0.38
0.23425	1.215
0.2345	1.545
0.23475	-0.025
0.235	-0.765
0.23525	-0.62
0.2355	-0.37
0.23575	-0.155
0.236	-0.17
0.23625	-0.145
0.2365	-0.16
0.23675	-0.13
0.237	-0.145
0.23725	-0.125
0.2375	-0.12
0.23775	-0.08
0.238	-0.065
0.23825	-0.035
0.2385	-0.02
0.23875	0.01
0.239	0.035
0.23925	0.08
0.2395	0.105
0.23975	0.155
0.24	0.18
0.24025	0.22
0.2405	0.225
0.24075	0.24
0.241	0.235
0.24125	0.245
0.2415	0.225
0.24175	0.2
0.242	0.155
0.24225	0.115
0.2425	0.075
0.24275	0.05
0.243	0.02
0.24325	0
0.2435	-0.01
0.24375	-0.015
0.244	-0.01
0.24425	-0.01
0.2445	-0.005
0.24475	0
0.245	0
0.24525	0
0.2455	0
0.24575	0
0.246	-0.005
0.24625	-0.01
0.2465	-0.02
0.24675	-0.025
0.247	-0.035
0.24725	-0.045
0.2475	-0.055
0.24775	-0.055
0.248	-0.06
0.24825	-0.06
0.2485	-0.06
0.24875	-0.055
0.249	-0.055
0.24925	-0.055
0.2495	-0.065
0.24975	-0.06
0.25	-0.055
0.25025	-0.06
0.2505	-0.065
0.25075	-0.06
0.251	-0.075
0.25125	-0.065
0.2515	-0.07
0.25175	-0.07
0.252	-0.09
0.25225	-0.08
0.2525	-0.095
0.25275	-0.08
0.253	-0.095
0.25325	-0.08
0.2535	-0.095
0.25375	-0.085
0.254	-0.09
0.25425	-0.09
0.2545	-0.1
0.25475	-0.085
0.255	-0.105
0.25525	-0.09
0.2555	-0.045
0.25575	0.005
0.256	0.015
0.25625	0.045
0.2565	0.155
0.25675	0.14
0.257	0.045
0.25725	0.005
0.2575	-0.04
0.25775	-0.085
0.258	-0.2
0.25825	-0.195
0.2585	-0.2
0.25875	-0.2
0.259	-0.24
0.25925	-0.13
0.2595	0.34
0.25975	1.155
0.26	1.47
0.26025	-0.155
0.2605	-0.825
0.26075	-0.59
0.261	-0.35
0.26125	-0.155
0.2615	-0.17
0.26175	-0.14
0.262	-0.155
0.26225	-0.115
0.2625	-0.125
0.26275	-0.09
0.263	-0.095
0.26325	-0.065
0.2635	-0.055
0.26375	-0.015
0.264	-0.005
0.26425	0.035
0.2645	0.045
0.26475	0.09
0.265	0.11
0.26525	0.15
0.2655	0.18
0.26575	0.205
0.266	0.225
0.26625	0.23
0.2665	0.22
0.26675	0.235
0.267	0.23
0.26725	0.2
0.2675	0.17
0.26775	0.12
0.268	0.075
0.26825	0.04
0.2685	0.02
0.26875	0.005
0.269	-0.005
0.26925	-0.005
0.2695	-0.01
0.26975	-0.015
0.27	-0.01
0.27025	0
0.2705	-0.005
0.27075	-0.02
0.271	-0.02
0.27125	-0.015
0.2715	-0.025
0.27175	-0.035
0.272	-0.045
0.27225	-0.045
0.2725	-0.06
0.27275	-0.065
0.273	-0.07
0.27325	-0.055
0.2735	-0.06
0.27375	-0.08
0.274	-0.075
0.27425	-0.09
0.2745	-0.065
0.27475	-0.075
0.275	-0.08
0.27525	-0.08
0.2755	-0.085
0.27575	-0.09
0.276	-0.075
0.27625	-0.085
0.2765	-0.095
0.27675	-0.105
0.277	-0.09
0.27725	-0.095
0.2775	-0.07
0.27775	-0.045
0.278	0.005
0.27825	0.03
0.2785	0.07
0.27875	0.195
0.279	0.145
0.27925	0.05
0.2795	-0.015
0.27975	-0.025
0.28	-0.115
0.28025	-0.18
0.2805	-0.19
0.28075	-0.185
0.281	-0.185
0.28125	-0.215
0.2815	0.01
0.28175	0.575
0.282	1.185
0.28225	0.96
0.2825	-0.16
0.28275	-0.74
0.283	-0.64
0.28325	-0.35
0.2835	-0.175
0.28375	-0.145
0.284	-0.15
0.28425	-0.145
0.2845	-0.105
0.28475	-0.12
0.285	-0.09
0.28525	-0.085
0.2855	-0.07
0.28575	-0.04
0.286	-0.02
0.28625	0.005
0.2865	0.02
0.28675	0.045
0.287	0.08
0.28725	0.115
0.2875	0.14
0.28775	0.165
0.288	0.21
0.28825	0.19
0.2885	0.22
0.28875	0.21
0.289	0.215
0.28925	0.215
0.2895	0.16
0.28975	0.135
0.29	0.1
0.29025	0.05
0.2905	0.035
0.29075	-0.005
0.291	0.005
0.29125	-0.005
0.2915	-0.015
0.29175	-0.02
0.292	-0.01
0.29225	0
0.2925	-0.02
0.29275	-0.005
0.293	-0.04
0.29325	-0.035
0.2935	-0.05
0.29375	-0.04
0.294	-0.055
0.29425	-0.075
0.2945	-0.05
0.29475	-0.075
0.295	-0.09
0.29525	-0.08
0.2955	-0.09
0.29575	-0.08
0.296	-0.075
0.29625	-0.085
0.2965	-0.085
0.29675	-0.095
0.297	-0.095
0.29725	-0.105
0.2975	-0.08
0.29775	-0.115
0.298	-0.1
0.29825	-0.095
0.2985	-0.1
0.29875	-0.075
0.299	-0.005
0.29925	0.01
0.2995	0.055
0.29975	0.185
0.3	0.145
0.30025	0.075
0.3005	-0.005
0.30075	-0.025
0.301	-0.11
0.30125	-0.175
0.3015	-0.18
0.30175	-0.22
0.302	-0.175
0.30225	-0.24
0.3025	-0.03
0.30275	0.53
0.303	1.21
0.30325	1.22
0.3035	-0.105
0.30375	-0.795
0.304	-0.69
0.30425	-0.375
0.3045	-0.165
0.30475	-0.155
0.305	-0.135
0.30525	-0.15
0.3055	-0.12
0.30575	-0.12
0.306	-0.09
0.30625	-0.095
0.3065	-0.05
0.30675	-0.05
0.307	-0.01
0.30725	-0.005
0.3075	0.03
0.30775	0.08
0.308	0.075
0.30825	0.145
0.3085	0.155
0.30875	0.2
0.309	0.2
0.30925	0.24
0.3095	0.235
0.30975	0.245
0.31	0.245
0.31025	0.215
0.3105	0.18
0.31075	0.15
0.311	0.09
0.31125	0.035
0.3115	0.025
0.31175	0
0.312	-0.015
0.31225	-0.03
0.3125	0
0.31275	-0.02
0.313	-0.005
0.31325	-0.025
0.3135	-0.03
0.31375	-0.015
0.314	-0.01
0.31425	-0.035
0.3145	-0.04
0.31475	-0.05
0.315	-0.045
0.31525	-0.04
0.3155	-0.075
0.31575	-0.065
0.316	-0.095
0.31625	-0.085
0.3165	-0.085
0.31675	-0.09
0.317	-0.1
0.31725	-0.1
0.3175	-0.08
0.31775	-0.105
0.318	-0.105
0.31825	-0.1
0.3185	-0.105
0.31875	-0.095
0.319	-0.1
0.31925	-0.09
0.3195	-0.035
0.31975	0.01
0.32	0.035
0.32025	0.07
0.3205	0.19
0.32075	0.125
0.321	0.045
0.32125	-0.035
0.3215	-0.06
0.32175	-0.155
0.322	-0.21
0.32225	-0.225
0.3225	-0.2
0.32275	-0.215
0.323	-0.265
0.32325	0.07
0.3235	0.865
0.32375	1.495
0.324	0.625
0.32425	-0.44
0.3245	-0.815
0.32475	-0.6
0.325	-0.31
0.32525	-0.175
0.3255	-0.18
0.32575	-0.165
0.326	-0.135
0.32625	-0.135
0.3265	-0.115
0.32675	-0.105
0.327	-0.085
0.32725	-0.06
0.3275	-0.03
0.32775	-0.02
0.328	0.015
0.32825	0.05
0.3285	0.07
0.32875	0.105
0.329	0.165
0.32925	0.2
0.3295	0.205
0.32975	0.235
0.33	0.235
0.33025	0.265
0.3305	0.26
0.33075	0.235
0.331	0.215
0.33125	0.17
0.3315	0.125
0.33175	0.09
0.332	0.025
0.33225	-0.015
0.3325	-0.03
0.33275	-0.035
0.333	-0.04
0.33325	-0.04
0.3335	-0.035
0.33375	-0.04
0.334	-0.02
0.33425	-0.04
0.3345	-0.04
0.33475	-0.03
0.335	-0.045
0.33525	-0.065
0.3355	-0.06
0.33575	-0.06
0.336	-0.09
0.33625	-0.08
0.3365	-0.095
0.33675	-0.085
0.337	-0.105
0.33725	-0.09
0.3375	-0.1
0.33775	-0.105
0.338	-0.115
0.33825	-0.1
0.3385	-0.115
0.33875	-0.11
0.339	-0.135
0.33925	-0.095
0.3395	-0.125
0.33975	-0.105
0.34	-0.085
0.34025	-0.015
0.3405	0.02
0.34075	0.03
0.341	0.135
0.34125	0.16
0.3415	0.105
0.34175	0.03
0.342	-0.05
0.34225	-0.05
0.3425	-0.17
0.34275	-0.205
0.343	-0.215
0.34325	-0.175
0.3435	-0.21
0.34375	-0.215
0.344	0.175
0.34425	1.09
0.3445	1.7
0.34475	0.335
0.345	-0.615
0.34525	-0.705
0.3455	-0.46
0.34575	-0.175
0.346	-0.165
0.34625	-0.145
0.3465	-0.155
0.34675	-0.115
0.347	-0.12
0.34725	-0.105
0.3475	-0.105
0.34775	-0.085
0.348	-0.06
0.34825	-0.015
0.3485	-0.005
0.34875	0.02
0.349	0.05
0.34925	0.08
0.3495	0.105
0.34975	0.18
0.35	0.205
0.35025	0.24
0.3505	0.235
0.35075	0.27
0.351	0.27
0.35125	0.28
0.3515	0.26
0.35175	0.23
0.352	0.175
0.35225	0.135
0.3525	0.09
0.35275	0.045
0.353	0
0.35325	-0.005
0.3535	-0.025
0.35375	-0.025
0.354	-0.025
0.35425	-0.02
0.3545	0
0.35475	-0.005
0.355	-0.005
0.35525	-0.005
0.3555	-0.005
0.35575	-0.01
0.356	-0.025
0.35625	-0.02
0.3565	-0.04
0.35675	-0.04
0.357	-0.04
0.35725	-0.05
0.3575	-0.06
0.35775	-0.05
0.358	-0.065
0.35825	-0.06
0.3585	-0.07
0.35875	-0.06
0.359	-0.09
0.35925	-0.08
0.3595	-0.095
0.35975	-0.085
0.36	-0.1
0.36025	-0.09
0.3605	-0.095
0.36075	-0.085
0.361	-0.1
0.36125	-0.075
0.3615	-0.095
0.36175	-0.08
0.362	-0.075
0.36225	0
0.3625	0.03
0.36275	0.035
0.363	0.135
0.36325	0.145
0.3635	0.07
0.36375	0.015
0.364	-0.045
0.36425	-0.055
0.3645	-0.185
0.36475	-0.19
0.365	-0.22
0.36525	-0.18
0.3655	-0.21
0.36575	-0.185
0.366	0.22
0.36625	1.15
0.3665	1.72
0.36675	0.155
0.367	-0.7
0.36725	-0.66
0.3675	-0.405
0.36775	-0.15
0.368	-0.16
0.36825	-0.135
0.3685	-0.145
0.36875	-0.12
0.369	-0.125
0.36925	-0.09
0.3695	-0.09
0.36975	-0.055
0.37	-0.04
0.37025	-0.015
0.3705	0
0.37075	0.03
0.371	0.05
0.37125	0.095
0.3715	0.11
0.37175	0.165
0.372	0.19
0.37225	0.23
0.3725	0.245
0.37275	0.255
0.373	0.255
0.37325	0.265
0.3735	0.255
0.37375	0.23
0.374	0.185
0.37425	0.145
0.3745	0.1
0.37475	0.06
0.375	0.025
0.37525	0.025
0.3755	0.01
0.37575	0.01
0.376	0.01
0.37625	0.015
0.3765	0.01
0.37675	0.025
0.377	0.02
0.37725	0.02
0.3775	0.02
0.37775	0.015
0.378	0
0.37825	0
0.3785	-0.01
0.37875	-0.015
0.379	-0.02
0.37925	-0.03
0.3795	-0.035
0.37975	-0.035
0.38	-0.045
0.38025	-0.04
0.3805	-0.045
0.38075	-0.045
0.381	-0.055
0.38125	-0.045
0.3815	-0.055
0.38175	-0.045
0.382	-0.06
0.38225	-0.05
0.3825	-0.06
0.38275	-0.055
0.383	-0.08
0.38325	-0.065
0.3835	-0.09
0.38375	-0.075
0.384	-0.09
0.38425	-0.07
0.3845	-0.075
0.38475	-0.065
0.385	-0.08
0.38525	-0.065
0.3855	-0.03
0.38575	0.025
0.386	0.04
0.38625	0.065
0.3865	0.18
0.38675	0.145
0.387	0.055
0.38725	0.015
0.3875	-0.035
0.38775	-0.06
0.388	-0.175
0.38825	-0.17
0.3885	-0.195
0.38875	-0.175
0.389	-0.22
0.38925	-0.115
0.3895	0.355
0.38975	1.24
0.39	1.595
0.39025	-0.115
0.3905	-0.815
0.39075	-0.565
0.391	-0.3
0.39125	-0.13
0.3915	-0.16
0.39175	-0.13
0.392	-0.135
0.39225	-0.11
0.3925	-0.12
0.39275	-0.09
0.393	-0.085
0.39325	-0.055
0.3935	-0.04
0.39375	-0.005
0.394	0
0.39425	0.04
0.3945	0.05
0.39475	0.095
0.395	0.125
0.39525	0.17
0.3955	0.19
0.39575	0.22
0.396	0.23
0.39625	0.245
0.3965	0.25
0.39675	0.26
0.397	0.24
0.39725	0.22
0.3975	0.175
0.39775	0.135
0.398	0.085
0.39825	0.055
0.3985	0.02
0.39875	0.015
0.399	0.01
0.39925	0.01
0.3995	0
0.39975	0
0.4	0
0.40025	0.01
0.4005	0.005
0.40075	0.02
0.401	0.01
0.40125	0
0.4015	-0.01
0.40175	-0.015
0.402	-0.02
0.40225	-0.02
0.4025	-0.025
0.40275	-0.035
0.403	-0.03
0.40325	-0.045
0.4035	-0.05
0.40375	-0.05
0.404	-0.055
0.40425	-0.065
0.4045	-0.065
0.40475	-0.06
0.405	-0.065
0.40525	-0.07
0.4055	-0.06
0.40575	-0.06
0.406	-0.055
0.40625	-0.06
0.4065	-0.065
0.40675	-0.08
0.407	-0.065
0.40725	-0.08
0.4075	-0.065
0.40775	-0.075
0.408	-0.07
0.40825	-0.085
0.4085	-0.07
0.40875	-0.085
0.409	-0.075
0.40925	-0.085
0.4095	-0.06
0.40975	-0.045
0.41	0.02
0.41025	0.04
0.4105	0.055
0.41075	0.18
0.411	0.155
0.41125	0.06
0.4115	0.02
0.41175	-0.025
0.412	-0.055
0.41225	-0.18
0.4125	-0.16
0.41275	-0.17
0.413	-0.165
0.41325	-0.195
0.4135	-0.1
0.41375	0.35
0.414	1.115
0.41425	1.495
0.4145	-0.04
0.41475	-0.73
0.415	-0.62
0.41525	-0.365
0.4155	-0.13
0.41575	-0.15
0.416	-0.135
0.41625	-0.15
0.4165	-0.12
0.41675	-0.13
0.417	-0.105
0.41725	-0.09
0.4175	-0.055
0.41775	-0.06
0.418	-0.035
0.41825	-0.015
0.4185	0.02
0.41875	0.045
0.419	0.065
0.41925	0.095
0.4195	0.145
0.41975	0.18
0.42	0.215
0.42025	0.2
0.4205	0.225
0.42075	0.235
0.421	0.245
0.42125	0.235
0.4215	0.225
0.42175	0.175
0.422	0.13
0.42225	0.09
0.4225	0.05
0.42275	0.035
0.423	0.015
0.42325	0.005
0.4235	0
0.42375	-0.005
0.424	0
0.42425	0
0.4245	0
0.42475	0
0.425	-0.005
0.42525	-0.005
0.4255	-0.02
0.42575	-0.02
0.426	-0.04
0.42625	-0.05
0.4265	-0.06
0.42675	-0.06
0.427	-0.06
0.42725	-0.07
0.4275	-0.065
0.42775	-0.075
0.428	-0.07
0.42825	-0.065
0.4285	-0.075
0.42875	-0.075
0.429	-0.075
0.42925	-0.09
0.4295	-0.075
0.42975	-0.085
0.43	-0.08
0.43025	-0.09
0.4305	-0.075
0.43075	-0.09
0.431	-0.08
0.43125	-0.09
0.4315	-0.08
0.43175	-0.1
0.432	-0.085
0.43225	-0.1
0.4325	-0.075
0.43275	-0.085
0.433	-0.09
0.43325	-0.075
0.4335	-0.015
0.43375	0.025
0.434	0.055
0.43425	0.155
0.4345	0.16
0.43475	0.095
0.435	0.015
0.43525	-0.035
0.4355	-0.05
0.43575	-0.175
0.436	-0.17
0.43625	-0.19
0.4365	-0.175
0.43675	-0.2
0.437	-0.105
0.43725	0.335
0.4375	1.095
0.43775	1.47
0.438	0.065
0.43825	-0.66
0.4385	-0.69
0.43875	-0.44
0.439	-0.185
0.43925	-0.16
0.4395	-0.135
0.43975	-0.135
0.44	-0.115
0.44025	-0.115
0.4405	-0.11
0.44075	-0.095
0.441	-0.055
0.44125	-0.05
0.4415	-0.015
0.44175	-0.005
0.442	0.045
0.44225	0.05
0.4425	0.095
0.44275	0.12
0.443	0.165
0.44325	0.185
0.4435	0.21
0.44375	0.225
0.444	0.245
0.44425	0.24
0.4445	0.24
0.44475	0.235
0.445	0.21
0.44525	0.165
0.4455	0.125
0.44575	0.07
0.446	0.045
0.44625	0.01
0.4465	0.02
0.44675	0.005
0.447	0
0.44725	0
0.4475	0
0.44775	0
0.448	0
0.44825	-0.005
0.4485	-0.01
0.44875	-0.005
0.449	-0.025
0.44925	-0.005
0.4495	-0.04
0.44975	-0.04
0.45	-0.045
0.45025	-0.045
0.4505	-0.04
0.45075	-0.055
0.451	-0.065
0.45125	-0.05
0.4515	-0.065
0.45175	-0.065
0.452	-0.065
0.45225	-0.065
0.4525	-0.07
0.45275	-0.065
0.453	-0.07
0.45325	-0.065
0.4535	-0.07
0.45375	-0.07
0.454	-0.085
0.45425	-0.06
0.4545	-0.09
0.45475	-0.065
0.455	-0.085
0.45525	-0.08
0.4555	-0.085
0.45575	-0.05
0.456	-0.09
0.45625	-0.075
0.4565	-0.055
0.45675	0.005
0.457	0.055
0.45725	0.06
0.4575	0.16
0.45775	0.155
0.458	0.08
0.45825	0.015
0.4585	-0.02
0.45875	-0.045
0.459	-0.17
0.45925	-0.17
0.4595	-0.175
0.45975	-0.16
0.46	-0.2
0.46025	-0.105
0.4605	0.36
0.46075	1.16
0.461	1.55
0.46125	0.07
0.4615	-0.69
0.46175	-0.66
0.462	-0.41
0.46225	-0.155
0.4625	-0.155
0.46275	-0.135
0.463	-0.135
0.46325	-0.105
0.4635	-0.11
0.46375	-0.085
0.464	-0.09
0.46425	-0.065
0.4645	-0.045
0.46475	-0.005
0.465	0
0.46525	0.04
0.4655	0.065
0.46575	0.1
0.466	0.12
0.46625	0.175
0.4665	0.19
0.46675	0.23
0.467	0.255
0.46725	0.27
0.4675	0.265
0.46775	0.275
0.468	0.245
0.46825	0.215
0.4685	0.175
0.46875	0.14
0.469	0.095
0.46925	0.04
0.4695	0.025
0.46975	0.015
0.47	0
0.47025	0
0.4705	0
0.47075	0
0.471	0
0.47125	0
0.4715	0
0.47175	0
0.472	-0.005
0.47225	-0.01
0.4725	-0.01
0.47275	-0.015
0.473	-0.03
0.47325	-0.035
0.4735	-0.045
0.47375	-0.045
0.474	-0.05
0.47425	-0.045
0.4745	-0.065
0.47475	-0.07
0.475	-0.075
0.47525	-0.07
0.4755	-0.09
0.47575	-0.085
0.476	-0.09
0.47625	-0.07
0.4765	-0.085
0.47675	-0.085
0.477	-0.095
0.47725	-0.085
0.4775	-0.09
0.47775	-0.085
0.478	-0.09
0.47825	-0.09
0.4785	-0.1
0.47875	-0.09
0.479	-0.105
0.47925	-0.09
0.4795	-0.1
0.47975	-0.085
0.48	-0.055
0.48025	0
0.4805	0.035
0.48075	0.05
0.481	0.17
0.48125	0.135
0.4815	0.06
0.48175	0.01
0.482	-0.035
0.48225	-0.075
0.4825	-0.19
0.48275	-0.185
0.483	-0.205
0.48325	-0.18
0.4835	-0.225
0.48375	-0.11
0.484	0.38
0.48425	1.215
0.4845	1.545
0.48475	-0.025
0.485	-0.765
0.48525	-0.62
0.4855	-0.37
0.48575	-0.155
0.486	-0.17
0.48625	-0.145
0.4865	-0.16
0.48675	-0.13
0.487	-0.145
0.48725	-0.125
0.4875	-0.12
0.48775	-0.08
0.488	-0.065
0.48825	-0.035
0.4885	-0.02
0.48875	0.01
0.489	0.035
0.48925	0.08
0.4895	0.105
0.48975	0.155
0.49	0.18
0.49025	0.22
0.4905	0.225
0.49075	0.24
0.491	0.235
0.49125	0.245
0.4915	0.225
0.49175	0.2
0.492	0.155
0.49225	0.115
0.4925	0.075
0.49275	0.05
0.493	0.02
0.49325	0
0.4935	-0.01
0.49375	-0.015
0.494	-0.01
0.49425	-0.01
0.4945	-0.005
0.49475	0
0.495	0
0.49525	0
0.4955	0
0.49575	0
0.496	-0.005
0.49625	-0.01
0.4965	-0.02
0.49675	-0.025
0.497	-0.035
0.49725	-0.045
0.4975	-0.055
0.49775	-0.055
0.498	-0.06
0.49825	-0.06
0.4985	-0.06
0.49875	-0.055
0.499	-0.055
0.49925	-0.055
0.4995	-0.065
0.49975	-0.06
0.5	-0.055
0.50025	-0.06
0.5005	-0.065
0.50075	-0.06
0.501	-0.075
0.50125	-0.065
0.5015	-0.07
0.50175	-0.07
0.502	-0.09
0.50225	-0.08
0.5025	-0.095
0.50275	-0.08
0.503	-0.095
0.50325	-0.08
0.5035	-0.095
0.50375	-0.085
0.504	-0.09
0.50425	-0.09
0.5045	-0.1
0.50475	-0.085
0.505	-0.105
0.50525	-0.09
0.5055	-0.045
0.50575	0.005
0.506	0.015
0.50625	0.045
0.5065	0.155
0.50675	0.14
0.507	0.045
0.50725	0.005
0.5075	-0.04
0.50775	-0.085
0.508	-0.2
0.50825	-0.195
0.5085	-0.2
0.50875	-0.2
0.509	-0.24
0.50925	-0.13
0.5095	0.34
0.50975	1.155
0.51	1.47
0.51025	-0.155
0.5105	-0.825
0.51075	-0.59
0.511	-0.35
0.51125	-0.155
0.5115	-0.17
0.51175	-0.14
0.512	-0.155
0.51225	-0.115
0.5125	-0.125
0.51275	-0.09
0.513	-0.095
0.51325	-0.065
0.5135	-0.055
0.51375	-0.015
0.514	-0.005
0.51425	0.035
0.5145	0.045
0.51475	0.09
0.515	0.11
0.51525	0.15
0.5155	0.18
0.51575	0.205
0.516	0.225
0.51625	0.23
0.5165	0.22
0.51675	0.235
0.517	0.23
0.51725	0.2
0.5175	0.17
0.51775	0.12
0.518	0.075
0.51825	0.04
0.5185	0.02
0.51875	0.005
0.519	-0.005
0.51925	-0.005
0.5195	-0.01
0.51975	-0.015
0.52	-0.01
0.52025	0
0.5205	-0.005
0.52075	-0.02
0.521	-0.02
0.52125	-0.015
0.5215	-0.025
0.52175	-0.035
0.522	-0.045
0.52225	-0.045
0.5225	-0.06
0.52275	-0.065
0.523	-0.07
0.52325	-0.055
0.5235	-0.06
0.52375	-0.08
0.524	-0.075
0.52425	-0.09
0.5245	-0.065
0.52475	-0.075
0.525	-0.08
0.52525	-0.08
0.5255	-0.085
0.52575	-0.09
0.526	-0.075
0.52625	-0.085
0.5265	-0.095
0.52675	-0.105
0.527	-0.09
0.52725	-0.095
0.5275	-0.07
0.52775	-0.045
0.528	0.005
0.52825	0.03
0.5285	0.07
0.52875	0.195
0.529	0.145
0.52925	0.05
0.5295	-0.015
0.52975	-0.025
0.53	-0.115
0.53025	-0.18
0.5305	-0.19
0.53075	-0.185
0.531	-0.185
0.53125	-0.215
0.5315	0.01
0.53175	0.575
0.532	1.185
0.53225	0.96
0.5325	-0.16
0.53275	-0.74
0.533	-0.64
0.53325	-0.35
0.5335	-0.175
0.53375	-0.145
0.534	-0.15
0.53425	-0.145
0.5345	-0.105
0.53475	-0.12
0.535	-0.09
0.53525	-0.085
0.5355	-0.07
0.53575	-0.04
0.536	-0.02
0.53625	0.005
0.5365	0.02
0.53675	0.045
0.537	0.08
0.53725	0.115
0.5375	0.14
0.53775	0.165
0.538	0.21
0.53825	0.19
0.5385	0.22
0.53875	0.21
0.539	0.215
0.53925	0.215
0.5395	0.16
0.53975	0.135
0.54	0.1
0.54025	0.05
0.5405	0.035
0.54075	-0.005
0.541	0.005
0.54125	-0.005
0.5415	-0.015
0.54175	-0.02
0.542	-0.01
0.54225	0
0.5425	-0.02
0.54275	-0.005
0.543	-0.04
0.54325	-0.035
0.5435	-0.05
0.54375	-0.04
0.544	-0.055
0.54425	-0.075
0.5445	-0.05
0.54475	-0.075
0.545	-0.09
0.54525	-0.08
0.5455	-0.09
0.54575	-0.08
0.546	-0.075
0.54625	-0.085
0.5465	-0.085
0.54675	-0.095
0.547	-0.095
0.54725	-0.105
0.5475	-0.08
0.54775	-0.115
0.548	-0.1
0.54825	-0.095
0.5485	-0.1
0.54875	-0.075
0.549	-0.005
0.54925	0.01
0.5495	0.055
0.54975	0.185
0.55	0.145
0.55025	0.075
0.5505	-0.005
0.55075	-0.025
0.551	-0.11
0.55125	-0.175
0.5515	-0.18
0.55175	-0.22
0.552	-0.175
0.55225	-0.24
0.5525	-0.03
0.55275	0.53
0.553	1.21
0.55325	1.22
0.5535	-0.105
0.55375	-0.795
0.554	-0.69
0.55425	-0.375
0.5545	-0.165
0.55475	-0.155
0.555	-0.135
0.55525	-0.15
0.5555	-0.12
0.55575	-0.12
0.556	-0.09
0.55625	-0.095
0.5565	-0.05
0.55675	-0.05
0.557	-0.01
0.55725	-0.005
0.5575	0.03
0.55775	0.08
0.558	0.075
0.55825	0.145
0.5585	0.155
0.55875	0.2
0.559	0.2
0.55925	0.24
0.5595	0.235
0.55975	0.245
0.56	0.245
0.56025	0.215
0.5605	0.18
0.56075	0.15
0.561	0.09
0.56125	0.035
0.5615	0.025
0.56175	0
0.562	-0.015
0.56225	-0.03
0.5625	0
0.56275	-0.02
0.563	-0.005
0.56325	-0.025
0.5635	-0.03
0.56375	-0.015
0.564	-0.01
0.56425	-0.035
0.5645	-0.04
0.56475	-0.05
0.565	-0.045
0.56525	-0.04
0.5655	-0.075
0.56575	-0.065
0.566	-0.095
0.56625	-0.085
0.5665	-0.085
0.56675	-0.09
0.567	-0.1
0.56725	-0.1
0.5675	-0.08
0.56775	-0.105
0.568	-0.105
0.56825	-0.1
0.5685	-0.105
0.56875	-0.095
0.569	-0.1
0.56925	-0.09
0.5695	-0.035
0.56975	0.01
0.57	0.035
0.57025	0.07
0.5705	0.19
0.57075	0.125
0.571	0.045
0.57125	-0.035
0.5715	-0.06
0.57175	-0.155
0.572	-0.21
0.57225	-0.225
0.5725	-0.2
0.57275	-0.215
0.573	-0.265
0.57325	0.07
0.5735	0.865
0.57375	1.495
0.574	0.625
0.57425	-0.44
0.5745	-0.815
0.57475	-0.6
0.575	-0.31
0.57525	-0.175
0.5755	-0.18
0.57575	-0.165
0.576	-0.135
0.57625	-0.135
0.5765	-0.115
0.57675	-0.105
0.577	-0.085
0.57725	-0.06
0.5775	-0.03
0.57775	-0.02
0.578	0.015
0.57825	0.05
0.5785	0.07
0.57875	0.105
0.579	0.165
0.57925	0.2
0.5795	0.205
0.57975	0.235
0.58	0.235
0.58025	0.265
0.5805	0.26
0.58075	0.235
0.581	0.215
0.58125	0.17
0.5815	0.125
0.58175	0.09
0.582	0.025
0.58225	-0.015
0.5825	-0.03
0.58275	-0.035
0.583	-0.04
0.58325	-0.04
0.5835	-0.035
0.58375	-0.04
0.584	-0.02
0.58425	-0.04
0.5845	-0.04
0.58475	-0.03
0.585	-0.045
0.58525	-0.065
0.5855	-0.06
0.58575	-0.06
0.586	-0.09
0.58625	-0.08
0.5865	-0.095
0.58675	-0.085
0.587	-0.105
0.58725	-0.09
0.5875	-0.1
0.58775	-0.105
0.588	-0.115
0.58825	-0.1
0.5885	-0.115
0.58875	-0.11
0.589	-0.135
0.58925	-0.095
0.5895	-0.125
0.58975	-0.105
0.59	-0.085
0.59025	-0.015
0.5905	0.02
0.59075	0.03
0.591	0.135
0.59125	0.16
0.5915	0.105
0.59175	0.03
0.592	-0.05
0.59225	-0.05
0.5925	-0.17
0.59275	-0.205
0.593	-0.215
0.59325	-0.175
0.5935	-0.21
0.59375	-0.215
0.594	0.175
0.59425	1.09
0.5945	1.7
0.59475	0.335
0.595	-0.615
0.59525	-0.705
0.5955	-0.46
0.59575	-0.175
0.596	-0.165
0.59625	-0.145
0.5965	-0.155
0.59675	-0.115
0.597	-0.12
0.59725	-0.105
0.5975	-0.105
0.59775	-0.085
0.598	-0.06
0.59825	-0.015
0.5985	-0.005
0.59875	0.02
0.599	0.05
0.59925	0.08
0.5995	0.105
0.59975	0.18
0.6	0.205
0.60025	0.24
0.6005	0.235
0.60075	0.27
0.601	0.27
0.60125	0.28
0.6015	0.26
0.60175	0.23
0.602	0.175
0.60225	0.135
0.6025	0.09
0.60275	0.045
0.603	0
0.60325	-0.005
0.6035	-0.025
0.60375	-0.025
0.604	-0.025
0.60425	-0.02
0.6045	0
0.60475	-0.005
0.605	-0.005
0.60525	-0.005
0.6055	-0.005
0.60575	-0.01
0.606	-0.025
0.60625	-0.02
0.6065	-0.04
0.60675	-0.04
0.607	-0.04
0.60725	-0.05
0.6075	-0.06
0.60775	-0.05
0.608	-0.065
0.60825	-0.06
0.6085	-0.07
0.60875	-0.06
0.609	-0.09
0.60925	-0.08
0.6095	-0.095
0.60975	-0.085
0.61	-0.1
0.61025	-0.09
0.6105	-0.095
0.61075	-0.085
0.611	-0.1
0.61125	-0.075
0.6115	-0.095
0.61175	-0.08
0.612	-0.075
0.61225	0
0.6125	0.03
0.61275	0.035
0.613	0.135
0.61325	0.145
0.6135	0.07
0.61375	0.015
0.614	-0.045
0.61425	-0.055
0.6145	-0.185
0.61475	-0.19
0.615	-0.22
0.61525	-0.18
0.6155	-0.21
0.61575	-0.185
0.616	0.22
0.61625	1.15
0.6165	1.72
0.61675	0.155
0.617	-0.7
0.61725	-0.66
0.6175	-0.405
0.61775	-0.15
0.618	-0.16
0.61825	-0.135
0.6185	-0.145
0.61875	-0.12
0.619	-0.125
0.61925	-0.09
0.6195	-0.09
0.61975	-0.055
0.62	-0.04
0.62025	-0.015
0.6205	0
0.62075	0.03
0.621	0.05
0.62125	0.095
0.6215	0.11
0.62175	0.165
0.622	0.19
0.62225	0.23
0.6225	0.245
0.62275	0.255
0.623	0.255
0.62325	0.265
0.6235	0.255
0.62375	0.23
0.624	0.185
0.62425	0.145
0.6245	0.1
0.62475	0.06
0.625	0.025
0.62525	0.025
0.6255	0.01
0.62575	0.01
0.626	0.01
0.62625	0.015
0.6265	0.01
0.62675	0.025
0.627	0.02
0.62725	0.02
0.6275	0.02
0.62775	0.015
0.628	0
0.62825	0
0.6285	-0.01
0.62875	-0.015
0.629	-0.02
0.62925	-0.03
0.6295	-0.035
0.62975	-0.035
0.63	-0.045
0.63025	-0.04
0.6305	-0.045
0.63075	-0.045
0.631	-0.055
0.63125	-0.045
0.6315	-0.055
0.63175	-0.045
0.632	-0.06
0.63225	-0.05
0.6325	-0.06
0.63275	-0.055
0.633	-0.08
0.63325	-0.065
0.6335	-0.09
0.63375	-0.075
0.634	-0.09
0.63425	-0.07
0.6345	-0.075
0.63475	-0.065
0.635	-0.08
0.63525	-0.065
0.6355	-0.03
0.63575	0.025
0.636	0.04
0.63625	0.065
0.6365	0.18
0.63675	0.145
0.637	0.055
0.63725	0.015
0.6375	-0.035
0.63775	-0.06
0.638	-0.175
0.63825	-0.17
0.6385	-0.195
0.63875	-0.175
0.639	-0.22
0.63925	-0.115
0.6395	0.355
0.63975	1.24
0.64	1.595
0.64025	-0.115
0.6405	-0.815
0.64075	-0.565
0.641	-0.3
0.64125	-0.13
0.6415	-0.16
0.64175	-0.13
0.642	-0.135
0.64225	-0.11
0.6425	-0.12
0.64275	-0.09
0.643	-0.085
0.64325	-0.055
0.6435	-0.04
0.64375	-0.005
0.644	0
0.64425	0.04
0.6445	0.05
0.64475	0.095
0.645	0.125
0.64525	0.17
0.6455	0.19
0.64575	0.22
0.646	0.23
0.64625	0.245
0.6465	0.25
0.64675	0.26
0.647	0.24
0.64725	0.22
0.6475	0.175
0.64775	0.135
0.648	0.085
0.64825	0.055
0.6485	0.02
0.64875	0.015
0.649	0.01
0.64925	0.01
0.6495	0
0.64975	0
0.65	0
0.65025	0.01
0.6505	0.005
0.65075	0.02
0.651	0.01
0.65125	0
0.6515	-0.01
0.65175	-0.015
0.652	-0.02
0.65225	-0.02
0.6525	-0.025
0.65275	-0.035
0.653	-0.03
0.65325	-0.045
0.6535	-0.05
0.65375	-0.05
0.654	-0.055
0.65425	-0.065
0.6545	-0.065
0.65475	-0.06
0.655	-0.065
0.65525	-0.07
0.6555	-0.06
0.65575	-0.06
0.656	-0.055
0.65625	-0.06
0.6565	-0.065
0.65675	-0.08
0.657	-0.065
0.65725	-0.08
0.6575	-0.065
0.65775	-0.075
0.658	-0.07
0.65825	-0.085
0.6585	-0.07
0.65875	-0.085
0.659	-0.075
0.65925	-0.085
0.6595	-0.06
0.65975	-0.045
0.66	0.02
0.66025	0.04
0.6605	0.055
0.66075	0.18
0.661	0.155
0.66125	0.06
0.6615	0.02
0.66175	-0.025
0.662	-0.055
0.66225	-0.18
0.6625	-0.16
0.66275	-0.17
0.663	-0.165
0.66325	-0.195
0.6635	-0.1
0.66375	0.35
0.664	1.115
0.66425	1.495
0.6645	-0.04
0.66475	-0.73
0.665	-0.62
0.66525	-0.365
0.6655	-0.13
0.66575	-0.15
0.666	-0.135
0.66625	-0.15
0.6665	-0.12
0.66675	-0.13
0.667	-0.105
0.66725	-0.09
0.6675	-0.055
0.66775	-0.06
0.668	-0.035
0.66825	-0.015
0.6685	0.02
0.66875	0.045
0.669	0.065
0.66925	0.095
0.6695	0.145
0.66975	0.18
0.67	0.215
0.67025	0.2
0.6705	0.225
0.67075	0.235
0.671	0.245
0.67125	0.235
0.6715	0.225
0.67175	0.175
0.672	0.13
0.67225	0.09
0.6725	0.05
0.67275	0.035
0.673	0.015
0.67325	0.005
0.6735	0
0.67375	-0.005
0.674	0
0.67425	0
0.6745	0
0.67475	0
0.675	-0.005
0.67525	-0.005
0.6755	-0.02
0.67575	-0.02
0.676	-0.04
0.67625	-0.05
0.6765	-0.06
0.67675	-0.06
0.677	-0.06
0.67725	-0.07
0.6775	-0.065
0.67775	-0.075
0.678	-0.07
0.67825	-0.065
0.6785	-0.075
0.67875	-0.075
0.679	-0.075
0.67925	-0.09
0.6795	-0.075
0.67975	-0.085
0.68	-0.08
0.68025	-0.09
0.6805	-0.075
0.68075	-0.09
0.681	-0.08
0.68125	-0.09
0.6815	-0.08
0.68175	-0.1
0.682	-0.085
0.68225	-0.1
0.6825	-0.075
0.68275	-0.085
0.683	-0.09
0.68325	-0.075
0.6835	-0.015
0.68375	0.025
0.684	0.055
0.68425	0.155
0.6845	0.16
0.68475	0.095
0.685	0.015
0.68525	-0.035
0.6855	-0.05
0.68575	-0.175
0.686	-0.17
0.68625	-0.19
0.6865	-0.175
0.68675	-0.2
0.687	-0.105
0.68725	0.335
0.6875	1.095
0.68775	1.47
0.688	0.065
0.68825	-0.66
0.6885	-0.69
0.68875	-0.44
0.689	-0.185
0.68925	-0.16
0.6895	-0.135
0.68975	-0.135
0.69	-0.115
0.69025	-0.115
0.6905	-0.11
0.69075	-0.095
0.691	-0.055
0.69125	-0.05
0.6915	-0.015
0.69175	-0.005
0.692	0.045
0.69225	0.05
0.6925	0.095
0.69275	0.12
0.693	0.165
0.69325	0.185
0.6935	0.21
0.69375	0.225
0.694	0.245
0.69425	0.24
0.6945	0.24
0.69475	0.235
0.695	0.21
0.69525	0.165
0.6955	0.125
0.69575	0.07
0.696	0.045
0.69625	0.01
0.6965	0.02
0.69675	0.005
0.697	0
0.69725	0
0.6975	0
0.69775	0
0.698	0
0.69825	-0.005
0.6985	-0.01
0.69875	-0.005
0.699	-0.025
0.69925	-0.005
0.6995	-0.04
0.69975	-0.04
0.7	-0.045
0.70025	-0.045
0.7005	-0.04
0.70075	-0.055
0.701	-0.065
0.70125	-0.05
0.7015	-0.065
0.70175	-0.065
0.702	-0.065
0.70225	-0.065
0.7025	-0.07
0.70275	-0.065
0.703	-0.07
0.70325	-0.065
0.7035	-0.07
0.70375	-0.07
0.704	-0.085
0.70425	-0.06
0.7045	-0.09
0.70475	-0.065
0.705	-0.085
0.70525	-0.08
0.7055	-0.085
0.70575	-0.05
0.706	-0.09
0.70625	-0.075
0.7065	-0.055
0.70675	0.005
0.707	0.055
0.70725	0.06
0.7075	0.16
0.70775	0.155
0.708	0.08
0.70825	0.015
0.7085	-0.02
0.70875	-0.045
0.709	-0.17
0.70925	-0.17
0.7095	-0.175
0.70975	-0.16
0.71	-0.2
0.71025	-0.105
0.7105	0.36
0.71075	1.16
0.711	1.55
0.71125	0.07
0.7115	-0.69
0.71175	-0.66
0.712	-0.41
0.71225	-0.155
0.7125	-0.155
0.71275	-0.135
0.713	-0.135
0.71325	-0.105
0.7135	-0.11
0.71375	-0.085
0.714	-0.09
0.71425	-0.065
0.7145	-0.045
0.71475	-0.005
0.715	0
0.71525	0.04
0.7155	0.065
0.71575	0.1
0.716	0.12
0.71625	0.175
0.7165	0.19
0.71675	0.23
0.717	0.255
0.71725	0.27
0.7175	0.265
0.71775	0.275
0.718	0.245
0.71825	0.215
0.7185	0.175
0.71875	0.14
0.719	0.095
0.71925	0.04
0.7195	0.025
0.71975	0.015
0.72	0
0.72025	0
0.7205	0
0.72075	0
0.721	0
0.72125	0
0.7215	0
0.72175	0
0.722	-0.005
0.72225	-0.01
0.7225	-0.01
0.72275	-0.015
0.723	-0.03
0.72325	-0.035
0.7235	-0.045
0.72375	-0.045
0.724	-0.05
0.72425	-0.045
0.7245	-0.065
0.72475	-0.07
0.725	-0.075
0.72525	-0.07
0.7255	-0.09
0.72575	-0.085
0.726	-0.09
0.72625	-0.07
0.7265	-0.085
0.72675	-0.085
0.727	-0.095
0.72725	-0.085
0.7275	-0.09
0.72775	-0.085
0.728	-0.09
0.72825	-0.09
0.7285	-0.1
0.72875	-0.09
0.729	-0.105
0.72925	-0.09
0.7295	-0.1
0.72975	-0.085
0.73	-0.055
0.73025	0
0.7305	0.035
0.73075	0.05
0.731	0.17
0.73125	0.135
0.7315	0.06
0.73175	0.01
0.732	-0.035
0.73225	-0.075
0.7325	-0.19
0.73275	-0.185
0.733	-0.205
0.73325	-0.18
0.7335	-0.225
0.73375	-0.11
0.734	0.38
0.73425	1.215
0.7345	1.545
0.73475	-0.025
0.735	-0.765
0.73525	-0.62
0.7355	-0.37
0.73575	-0.155
0.736	-0.17
0.73625	-0.145
0.7365	-0.16
0.73675	-0.13
0.737	-0.145
0.73725	-0.125
0.7375	-0.12
0.73775	-0.08
0.738	-0.065
0.73825	-0.035
0.7385	-0.02
0.73875	0.01
0.739	0.035
0.73925	0.08
0.7395	0.105
0.73975	0.155
0.74	0.18
0.74025	0.22
0.7405	0.225
0.74075	0.24
0.741	0.235
0.74125	0.245
0.7415	0.225
0.74175	0.2
0.742	0.155
0.74225	0.115
0.7425	0.075
0.74275	0.05
0.743	0.02
0.74325	0
0.7435	-0.01
0.74375	-0.015
0.744	-0.01
0.74425	-0.01
0.7445	-0.005
0.74475	0
0.745	0
0.74525	0
0.7455	0
0.74575	0
0.746	-0.005
0.74625	-0.01
0.7465	-0.02
0.74675	-0.025
0.747	-0.035
0.74725	-0.045
0.7475	-0.055
0.74775	-0.055
0.748	-0.06
0.74825	-0.06
0.7485	-0.06
0.74875	-0.055
0.749	-0.055
0.74925	-0.055
0.7495	-0.065
0.74975	-0.06
0.75	-0.055
0.75025	-0.06
0.7505	-0.065
0.75075	-0.06
0.751	-0.075
0.75125	-0.065
0.7515	-0.07
0.75175	-0.07
0.752	-0.09
0.75225	-0.08
0.7525	-0.095
0.75275	-0.08
0.753	-0.095
0.75325	-0.08
0.7535	-0.095
0.75375	-0.085
0.754	-0.09
0.75425	-0.09
0.7545	-0.1
0.75475	-0.085
0.755	-0.105
0.75525	-0.09
0.7555	-0.045
0.75575	0.005
0.756	0.015
0.75625	0.045
0.7565	0.155
0.75675	0.14
0.757	0.045
0.75725	0.005
0.7575	-0.04
0.75775	-0.085
0.758	-0.2
0.75825	-0.195
0.7585	-0.2
0.75875	-0.2
0.759	-0.24
0.75925	-0.13
0.7595	0.34
0.75975	1.155
0.76	1.47
0.76025	-0.155
0.7605	-0.825
0.76075	-0.59
0.761	-0.35
0.76125	-0.155
0.7615	-0.17
0.76175	-0.14
0.762	-0.155
0.76225	-0.115
0.7625	-0.125
0.76275	-0.09
0.763	-0.095
0.76325	-0.065
0.7635	-0.055
0.76375	-0.015
0.764	-0.005
0.76425	0.035
0.7645	0.045
0.76475	0.09
0.765	0.11
0.76525	0.15
0.7655	0.18
0.76575	0.205
0.766	0.225
0.76625	0.23
0.7665	0.22
0.76675	0.235
0.767	0.23
0.76725	0.2
0.7675	0.17
0.76775	0.12
0.768	0.075
0.76825	0.04
0.7685	0.02
0.76875	0.005
0.769	-0.005
0.76925	-0.005
0.7695	-0.01
0.76975	-0.015
0.77	-0.01
0.77025	0
0.7705	-0.005
0.77075	-0.02
0.771	-0.02
0.77125	-0.015
0.7715	-0.025
0.77175	-0.035
0.772	-0.045
0.77225	-0.045
0.7725	-0.06
0.77275	-0.065
0.773	-0.07
0.77325	-0.055
0.7735	-0.06
0.77375	-0.08
0.774	-0.075
0.77425	-0.09
0.7745	-0.065
0.77475	-0.075
0.775	-0.08
0.77525	-0.08
0.7755	-0.085
0.77575	-0.09
0.776	-0.075
0.77625	-0.085
0.7765	-0.095
0.77675	-0.105
0.777	-0.09
0.77725	-0.095
0.7775	-0.07
0.77775	-0.045
0.778	0.005
0.77825	0.03
0.7785	0.07
0.77875	0.195
0.779	0.145
0.77925	0.05
0.7795	-0.015
0.77975	-0.025
0.78	-0.115
0.78025	-0.18
0.7805	-0.19
0.78075	-0.185
0.781	-0.185
0.78125	-0.215
0.7815	0.01
0.78175	0.575
0.782	1.185
0.78225	0.96
0.7825	-0.16
0.78275	-0.74
0.783	-0.64
0.78325	-0.35
0.7835	-0.175
0.78375	-0.145
0.784	-0.15
0.78425	-0.145
0.7845	-0.105
0.78475	-0.12
0.785	-0.09
0.78525	-0.085
0.7855	-0.07
0.78575	-0.04
0.786	-0.02
0.78625	0.005
0.7865	0.02
0.78675	0.045
0.787	0.08
0.78725	0.115
0.7875	0.14
0.78775	0.165
0.788	0.21
0.78825	0.19
0.7885	0.22
0.78875	0.21
0.789	0.215
0.78925	0.215
0.7895	0.16
0.78975	0.135
0.79	0.1
0.79025	0.05
0.7905	0.035
0.79075	-0.005
0.791	0.005
0.79125	-0.005
0.7915	-0.015
0.79175	-0.02
0.792	-0.01
0.79225	0
0.7925	-0.02
0.79275	-0.005
0.793	-0.04
0.79325	-0.035
0.7935	-0.05
0.79375	-0.04
0.794	-0.055
0.79425	-0.075
0.7945	-0.05
0.79475	-0.075
0.795	-0.09
0.79525	-0.08
0.7955	-0.09
0.79575	-0.08
0.796	-0.075
0.79625	-0.085
0.7965	-0.085
0.79675	-0.095
0.797	-0.095
0.79725	-0.105
0.7975	-0.08
0.79775	-0.115
0.798	-0.1
0.79825	-0.095
0.7985	-0.1
0.79875	-0.075
0.799	-0.005
0.79925	0.01
0.7995	0.055
0.79975	0.185
0.8	0.145
0.80025	0.075
0.8005	-0.005
0.80075	-0.025
0.801	-0.11
0.80125	-0.175
0.8015	-0.18
0.80175	-0.22
0.802	-0.175
0.80225	-0.24
0.8025	-0.03
0.80275	0.53
0.803	1.21
0.80325	1.22
0.8035	-0.105
0.80375	-0.795
0.804	-0.69
0.80425	-0.375
0.8045	-0.165
0.80475	-0.155
0.805	-0.135
0.80525	-0.15
0.8055	-0.12
0.80575	-0.12
0.806	-0.09
0.80625	-0.095
0.8065	-0.05
0.80675	-0.05
0.807	-0.01
0.80725	-0.005
0.8075	0.03
0.80775	0.08
0.808	0.075
0.80825	0.145
0.8085	0.155
0.80875	0.2
0.809	0.2
0.80925	0.24
0.8095	0.235
0.80975	0.245
0.81	0.245
0.81025	0.215
0.8105	0.18
0.81075	0.15
0.811	0.09
0.81125	0.035
0.8115	0.025
0.81175	0
0.812	-0.015
0.81225	-0.03
0.8125	0
0.81275	-0.02
0.813	-0.005
0.81325	-0.025
0.8135	-0.03
0.81375	-0.015
0.814	-0.01
0.81425	-0.035
0.8145	-0.04
0.81475	-0.05
0.815	-0.045
0.81525	-0.04
0.8155	-0.075
0.81575	-0.065
0.816	-0.095
0.81625	-0.085
0.8165	-0.085
0.81675	-0.09
0.817	-0.1
0.81725	-0.1
0.8175	-0.08
0.81775	-0.105
0.818	-0.105
0.81825	-0.1
0.8185	-0.105
0.81875	-0.095
0.819	-0.1
0.81925	-0.09
0.8195	-0.035
0.81975	0.01
0.82	0.035
0.82025	0.07
0.8205	0.19
0.82075	0.125
0.821	0.045
0.82125	-0.035
0.8215	-0.06
0.82175	-0.155
0.822	-0.21
0.82225	-0.225
0.8225	-0.2
0.82275	-0.215
0.823	-0.265
0.82325	0.07
0.8235	0.865
0.82375	1.495
0.824	0.625
0.82425	-0.44
0.8245	-0.815
0.82475	-0.6
0.825	-0.31
0.82525	-0.175
0.8255	-0.18
0.82575	-0.165
0.826	-0.135
0.82625	-0.135
0.8265	-0.115
0.82675	-0.105
0.827	-0.085
0.82725	-0.06
0.8275	-0.03
0.82775	-0.02
0.828	0.015
0.82825	0.05
0.8285	0.07
0.82875	0.105
0.829	0.165
0.82925	0.2
0.8295	0.205
0.82975	0.235
0.83	0.235
0.83025	0.265
0.8305	0.26
0.83075	0.235
0.831	0.215
0.83125	0.17
0.8315	0.125
0.83175	0.09
0.832	0.025
0.83225	-0.015
0.8325	-0.03
0.83275	-0.035
0.833	-0.04
0.83325	-0.04
0.8335	-0.035
0.83375	-0.04
0.834	-0.02
0.83425	-0.04
0.8345	-0.04
0.83475	-0.03
0.835	-0.045
0.83525	-0.065
0.8355	-0.06
0.83575	-0.06
0.836	-0.09
0.83625	-0.08
0.8365	-0.095
0.83675	-0.085
0.837	-0.105
0.83725	-0.09
0.8375	-0.1
0.83775	-0.105
0.838	-0.115
0.83825	-0.1
0.8385	-0.115
0.83875	-0.11
0.839	-0.135
0.83925	-0.095
0.8395	-0.125
0.83975	-0.105
0.84	-0.085
0.84025	-0.015
0.8405	0.02
0.84075	0.03
0.841	0.135
0.84125	0.16
0.8415	0.105
0.84175	0.03
0.842	-0.05
0.84225	-0.05
0.8425	-0.17
0.84275	-0.205
0.843	-0.215
0.84325	-0.175
0.8435	-0.21
0.84375	-0.215
0.844	0.175
0.84425	1.09
0.8445	1.7
0.84475	0.335
0.845	-0.615
0.84525	-0.705
0.8455	-0.46
0.84575	-0.175
0.846	-0.165
0.84625	-0.145
0.8465	-0.155
0.84675	-0.115
0.847	-0.12
0.84725	-0.105
0.8475	-0.105
0.84775	-0.085
0.848	-0.06
0.84825	-0.015
0.8485	-0.005
0.84875	0.02
0.849	0.05
0.84925	0.08
0.8495	0.105
0.84975	0.18
0.85	0.205
0.85025	0.24
0.8505	0.235
0.85075	0.27
0.851	0.27
0.85125	0.28
0.8515	0.26
0.85175	0.23
0.852	0.175
0.85225	0.135
0.8525	0.09
0.85275	0.045
0.853	0
0.85325	-0.005
0.8535	-0.025
0.85375	-0.025
0.854	-0.025
0.85425	-0.02
0.8545	0
0.85475	-0.005
0.855	-0.005
0.85525	-0.005
0.8555	-0.005
0.85575	-0.01
0.856	-0.025
0.85625	-0.02
0.8565	-0.04
0.85675	-0.04
0.857	-0.04
0.85725	-0.05
0.8575	-0.06
0.85775	-0.05
0.858	-0.065
0.85825	-0.06
0.8585	-0.07
0.85875	-0.06
0.859	-0.09
0.85925	-0.08
0.8595	-0.095
0.85975	-0.085
0.86	-0.1
0.86025	-0.09
0.8605	-0.095
0.86075	-0.085
0.861	-0.1
0.86125	-0.075
0.8615	-0.095
0.86175	-0.08
0.862	-0.075
0.86225	0
0.8625	0.03
0.86275	0.035
0.863	0.135
0.86325	0.145
0.8635	0.07
0.86375	0.015
0.864	-0.045
0.86425	-0.055
0.8645	-0.185
0.86475	-0.19
0.865	-0.22
0.86525	-0.18
0.8655	-0.21
0.86575	-0.185
0.866	0.22
0.86625	1.15
0.8665	1.72
0.86675	0.155
0.867	-0.7
0.86725	-0.66
0.8675	-0.405
0.86775	-0.15
0.868	-0.16
0.86825	-0.135
0.8685	-0.145
0.86875	-0.12
0.869	-0.125
0.86925	-0.09
0.8695	-0.09
0.86975	-0.055
0.87	-0.04
0.87025	-0.015
0.8705	0
0.87075	0.03
0.871	0.05
0.87125	0.095
0.8715	0.11
0.87175	0.165
0.872	0.19
0.87225	0.23
0.8725	0.245
0.87275	0.255
0.873	0.255
0.87325	0.265
0.8735	0.255
0.87375	0.23
0.874	0.185
0.87425	0.145
0.8745	0.1
0.87475	0.06
0.875	0.025
0.87525	0.025
0.8755	0.01
0.87575	0.01
0.876	0.01
0.87625	0.015
0.8765	0.01
0.87675	0.025
0.877	0.02
0.87725	0.02
0.8775	0.02
0.87775	0.015
0.878	0
0.87825	0
0.8785	-0.01
0.87875	-0.015
0.879	-0.02
0.87925	-0.03
0.8795	-0.035
0.87975	-0.035
0.88	-0.045
0.88025	-0.04
0.8805	-0.045
0.88075	-0.045
0.881	-0.055
0.88125	-0.045
0.8815	-0.055
0.88175	-0.045
0.882	-0.06
0.88225	-0.05
0.8825	-0.06
0.88275	-0.055
0.883	-0.08
0.88325	-0.065
0.8835	-0.09
0.88375	-0.075
0.884	-0.09
0.88425	-0.07
0.8845	-0.075
0.88475	-0.065
0.885	-0.08
0.88525	-0.065
0.8855	-0.03
0.88575	0.025
0.886	0.04
0.88625	0.065
0.8865	0.18
0.88675	0.145
0.887	0.055
0.88725	0.015
0.8875	-0.035
0.88775	-0.06
0.888	-0.175
0.88825	-0.17
0.8885	-0.195
0.88875	-0.175
0.889	-0.22
0.88925	-0.115
0.8895	0.355
0.88975	1.24
0.89	1.595
0.89025	-0.115
0.8905	-0.815
0.89075	-0.565
0.891	-0.3
0.89125	-0.13
0.8915	-0.16
0.89175	-0.13
0.892	-0.135
0.89225	-0.11
0.8925	-0.12
0.89275	-0.09
0.893	-0.085
0.89325	-0.055
0.8935	-0.04
0.89375	-0.005
0.894	0
0.89425	0.04
0.8945	0.05
0.89475	0.095
0.895	0.125
0.89525	0.17
0.8955	0.19
0.89575	0.22
0.896	0.23
0.89625	0.245
0.8965	0.25
0.89675	0.26
0.897	0.24
0.89725	0.22
0.8975	0.175
0.89775	0.135
0.898	0.085
0.89825	0.055
0.8985	0.02
0.89875	0.015
0.899	0.01
0.89925	0.01
0.8995	0
0.89975	0
0.9	0
0.90025	0.01
0.9005	0.005
0.90075	0.02
0.901	0.01
0.90125	0
0.9015	-0.01
0.90175	-0.015
0.902	-0.02
0.90225	-0.02
0.9025	-0.025
0.90275	-0.035
0.903	-0.03
0.90325	-0.045
0.9035	-0.05
0.90375	-0.05
0.904	-0.055
0.90425	-0.065
0.9045	-0.065
0.90475	-0.06
0.905	-0.065
0.90525	-0.07
0.9055	-0.06
0.90575	-0.06
0.906	-0.055
0.90625	-0.06
0.9065	-0.065
0.90675	-0.08
0.907	-0.065
0.90725	-0.08
0.9075	-0.065
0.90775	-0.075
0.908	-0.07
0.90825	-0.085
0.9085	-0.07
0.90875	-0.085
0.909	-0.075
0.90925	-0.085
0.9095	-0.06
0.90975	-0.045
0.91	0.02
0.91025	0.04
0.9105	0.055
0.91075	0.18
0.911	0.155
0.91125	0.06
0.9115	0.02
0.91175	-0.025
0.912	-0.055
0.91225	-0.18
0.9125	-0.16
0.91275	-0.17
0.913	-0.165
0.91325	-0.195
0.9135	-0.1
0.91375	0.35
0.914	1.115
0.91425	1.495
0.9145	-0.04
0.91475	-0.73
0.915	-0.62
0.91525	-0.365
0.9155	-0.13
0.91575	-0.15
0.916	-0.135
0.91625	-0.15
0.9165	-0.12
0.91675	-0.13
0.917	-0.105
0.91725	-0.09
0.9175	-0.055
0.91775	-0.06
0.918	-0.035
0.91825	-0.015
0.9185	0.02
0.91875	0.045
0.919	0.065
0.91925	0.095
0.9195	0.145
0.91975	0.18
0.92	0.215
0.92025	0.2
0.9205	0.225
0.92075	0.235
0.921	0.245
0.92125	0.235
0.9215	0.225
0.92175	0.175
0.922	0.13
0.92225	0.09
0.9225	0.05
0.92275	0.035
0.923	0.015
0.92325	0.005
0.9235	0
0.92375	-0.005
0.924	0
0.92425	0
0.9245	0
0.92475	0
0.925	-0.005
0.92525	-0.005
0.9255	-0.02
0.92575	-0.02
0.926	-0.04
0.92625	-0.05
0.9265	-0.06
0.92675	-0.06
0.927	-0.06
0.92725	-0.07
0.9275	-0.065
0.92775	-0.075
0.928	-0.07
0.92825	-0.065
0.9285	-0.075
0.92875	-0.075
0.929	-0.075
0.92925	-0.09
0.9295	-0.075
0.92975	-0.085
0.93	-0.08
0.93025	-0.09
0.9305	-0.075
0.93075	-0.09
0.931	-0.08
0.93125	-0.09
0.9315	-0.08
0.93175	-0.1
0.932	-0.085
0.93225	-0.1
0.9325	-0.075
0.93275	-0.085
0.933	-0.09
0.93325	-0.075
0.9335	-0.015
0.93375	0.025
0.934	0.055
0.93425	0.155
0.9345	0.16
0.93475	0.095
0.935	0.015
0.93525	-0.035
0.9355	-0.05
0.93575	-0.175
0.936	-0.17
0.93625	-0.19
0.9365	-0.175
0.93675	-0.2
0.937	-0.105
0.93725	0.335
0.9375	1.095
0.93775	1.47
0.938	0.065
0.93825	-0.66
0.9385	-0.69
0.93875	-0.44
0.939	-0.185
0.93925	-0.16
0.9395	-0.135
0.93975	-0.135
0.94	-0.115
0.94025	-0.115
0.9405	-0.11
0.94075	-0.095
0.941	-0.055
0.94125	-0.05
0.9415	-0.015
0.94175	-0.005
0.942	0.045
0.94225	0.05
0.9425	0.095
0.94275	0.12
0.943	0.165
0.94325	0.185
0.9435	0.21
0.94375	0.225
0.944	0.245
0.94425	0.24
0.9445	0.24
0.94475	0.235
0.945	0.21
0.94525	0.165
0.9455	0.125
0.94575	0.07
0.946	0.045
0.94625	0.01
0.9465	0.02
0.94675	0.005
0.947	0
0.94725	0
0.9475	0
0.94775	0
0.948	0
0.94825	-0.005
0.9485	-0.01
0.94875	-0.005
0.949	-0.025
0.94925	-0.005
0.9495	-0.04
0.94975	-0.04
0.95	-0.045
0.95025	-0.045
0.9505	-0.04
0.95075	-0.055
0.951	-0.065
0.95125	-0.05
0.9515	-0.065
0.95175	-0.065
0.952	-0.065
0.95225	-0.065
0.9525	-0.07
0.95275	-0.065
0.953	-0.07
0.95325	-0.065
0.9535	-0.07
0.95375	-0.07
0.954	-0.085
0.95425	-0.06
0.9545	-0.09
0.95475	-0.065
0.955	-0.085
0.95525	-0.08
0.9555	-0.085
0.95575	-0.05
0.956	-0.09
0.95625	-0.075
0.9565	-0.055
0.95675	0.005
0.957	0.055
0.95725	0.06
0.9575	0.16
0.95775	0.155
0.958	0.08
0.95825	0.015
0.9585	-0.02
0.95875	-0.045
0.959	-0.17
0.95925	-0.17
0.9595	-0.175
0.95975	-0.16
0.96	-0.2
0.96025	-0.105
0.9605	0.36
0.96075	1.16
0.961	1.55
0.96125	0.07
0.9615	-0.69
0.96175	-0.66
0.962	-0.41
0.96225	-0.155
0.9625	-0.155
0.96275	-0.135
0.963	-0.135
0.96325	-0.105
0.9635	-0.11
0.96375	-0.085
0.964	-0.09
0.96425	-0.065
0.9645	-0.045
0.96475	-0.005
0.965	0
0.96525	0.04
0.9655	0.065
0.96575	0.1
0.966	0.12
0.96625	0.175
0.9665	0.19
0.96675	0.23
0.967	0.255
0.96725	0.27
0.9675	0.265
0.96775	0.275
0.968	0.245
0.96825	0.215
0.9685	0.175
0.96875	0.14
0.969	0.095
0.96925	0.04
0.9695	0.025
0.96975	0.015
0.97	0
0.97025	0
0.9705	0
0.97075	0
0.971	0
0.97125	0
0.9715	0
0.97175	0
0.972	-0.005
0.97225	-0.01
0.9725	-0.01
0.97275	-0.015
0.973	-0.03
0.97325	-0.035
0.9735	-0.045
0.97375	-0.045
0.974	-0.05
0.97425	-0.045
0.9745	-0.065
0.97475	-0.07
0.975	-0.075
0.97525	-0.07
0.9755	-0.09
0.97575	-0.085
0.976	-0.09
0.97625	-0.07
0.9765	-0.085
0.97675	-0.085
0.977	-0.095
0.97725	-0.085
0.9775	-0.09
0.97775	-0.085
0.978	-0.09
0.97825	-0.09
0.9785	-0.1
0.97875	-0.09
0.979	-0.105
0.97925	-0.09
0.9795	-0.1
0.97975	-0.085
0.98	-0.055
0.98025	0
0.9805	0.035
0.98075	0.05
0.981	0.17
0.98125	0.135
0.9815	0.06
0.98175	0.01
0.982	-0.035
0.98225	-0.075
0.9825	-0.19
0.98275	-0.185
0.983	-0.205
0.98325	-0.18
0.9835	-0.225
0.98375	-0.11
0.984	0.38
0.98425	1.215
0.9845	1.545
0.98475	-0.025
0.985	-0.765
0.98525	-0.62
0.9855	-0.37
0.98575	-0.155
0.986	-0.17
0.98625	-0.145
0.9865	-0.16
0.98675	-0.13
0.987	-0.145
0.98725	-0.125
0.9875	-0.12
0.98775	-0.08
0.988	-0.065
0.98825	-0.035
0.9885	-0.02
0.98875	0.01
0.989	0.035
0.98925	0.08
0.9895	0.105
0.98975	0.155
0.99	0.18
0.99025	0.22
0.9905	0.225
0.99075	0.24
0.991	0.235
0.99125	0.245
0.9915	0.225
0.99175	0.2
0.992	0.155
0.99225	0.115
0.9925	0.075
0.99275	0.05
0.993	0.02
0.99325	0
0.9935	-0.01
0.99375	-0.015
0.994	-0.01
0.99425	-0.01
0.9945	-0.005
0.99475	0
0.995	0
0.99525	0
0.9955	0
0.99575	0
0.996	-0.005
0.99625	-0.01
0.9965	-0.02
0.99675	-0.025
0.997	-0.035
0.99725	-0.045
0.9975	-0.055
0.99775	-0.055
0.998	-0.06
0.99825	-0.06
0.9985	-0.06
0.99875	-0.055
0.999	-0.055
0.99925	-0.055
0.9995	-0.065
0.99975	-0.06
1	-0.055
1.00025	-0.06
1.0005	-0.065
1.00075	-0.06
1.001	-0.075
1.00125	-0.065
1.0015	-0.07
1.00175	-0.07
1.002	-0.09
1.00225	-0.08
1.0025	-0.095
1.00275	-0.08
1.003	-0.095
1.00325	-0.08
1.0035	-0.095
1.00375	-0.085
1.004	-0.09
1.00425	-0.09
1.0045	-0.1
1.00475	-0.085
1.005	-0.105
1.00525	-0.09
1.0055	-0.045
1.00575	0.005
1.006	0.015
1.00625	0.045
1.0065	0.155
1.00675	0.14
1.007	0.045
1.00725	0.005
1.0075	-0.04
1.00775	-0.085
1.008	-0.2
1.00825	-0.195
1.0085	-0.2
1.00875	-0.2
1.009	-0.24
1.00925	-0.13
1.0095	0.34
1.00975	1.155
1.01	1.47
1.01025	-0.155
1.0105	-0.825
1.01075	-0.59
1.011	-0.35
1.01125	-0.155
1.0115	-0.17
1.01175	-0.14
1.012	-0.155
1.01225	-0.115
1.0125	-0.125
1.01275	-0.09
1.013	-0.095
1.01325	-0.065
1.0135	-0.055
1.01375	-0.015
1.014	-0.005
1.01425	0.035
1.0145	0.045
1.01475	0.09
1.015	0.11
1.01525	0.15
1.0155	0.18
1.01575	0.205
1.016	0.225
1.01625	0.23
1.0165	0.22
1.01675	0.235
1.017	0.23
1.01725	0.2
1.0175	0.17
1.01775	0.12
1.018	0.075
1.01825	0.04
1.0185	0.02
1.01875	0.005
1.019	-0.005
1.01925	-0.005
1.0195	-0.01
1.01975	-0.015
1.02	-0.01
1.02025	0
1.0205	-0.005
1.02075	-0.02
1.021	-0.02
1.02125	-0.015
1.0215	-0.025
1.02175	-0.035
1.022	-0.045
1.02225	-0.045
1.0225	-0.06
1.02275	-0.065
1.023	-0.07
1.02325	-0.055
1.0235	-0.06
1.02375	-0.08
1.024	-0.075
1.02425	-0.09
1.0245	-0.065
1.02475	-0.075
1.025	-0.08
1.02525	-0.08
1.0255	-0.085
1.02575	-0.09
1.026	-0.075
1.02625	-0.085
1.0265	-0.095
1.02675	-0.105
1.027	-0.09
1.02725	-0.095
1.0275	-0.07
1.02775	-0.045
1.028	0.005
1.02825	0.03
1.0285	0.07
1.02875	0.195
1.029	0.145
1.02925	0.05
1.0295	-0.015
1.02975	-0.025
1.03	-0.115
1.03025	-0.18
1.0305	-0.19
1.03075	-0.185
1.031	-0.185
1.03125	-0.215
1.0315	0.01
1.03175	0.575
1.032	1.185
1.03225	0.96
1.0325	-0.16
1.03275	-0.74
1.033	-0.64
1.03325	-0.35
1.0335	-0.175
1.03375	-0.145
1.034	-0.15
1.03425	-0.145
1.0345	-0.105
1.03475	-0.12
1.035	-0.09
1.03525	-0.085
1.0355	-0.07
1.03575	-0.04
1.036	-0.02
1.03625	0.005
1.0365	0.02
1.03675	0.045
1.037	0.08
1.03725	0.115
1.0375	0.14
1.03775	0.165
1.038	0.21
1.03825	0.19
1.0385	0.22
1.03875	0.21
1.039	0.215
1.03925	0.215
1.0395	0.16
1.03975	0.135
1.04	0.1
1.04025	0.05
1.0405	0.035
1.04075	-0.005
1.041	0.005
1.04125	-0.005
1.0415	-0.015
1.04175	-0.02
1.042	-0.01
1.04225	0
1.0425	-0.02
1.04275	-0.005
1.043	-0.04
1.04325	-0.035
1.0435	-0.05
1.04375	-0.04
1.044	-0.055
1.04425	-0.075
1.0445	-0.05
1.04475	-0.075
1.045	-0.09
1.04525	-0.08
1.0455	-0.09
1.04575	-0.08
1.046	-0.075
1.04625	-0.085
1.0465	-0.085
1.04675	-0.095
1.047	-0.095
1.04725	-0.105
1.0475	-0.08
1.04775	-0.115
1.048	-0.1
1.04825	-0.095
1.0485	-0.1
1.04875	-0.075
1.049	-0.005
1.04925	0.01
1.0495	0.055
1.04975	0.185
1.05	0.145
1.05025	0.075
1.0505	-0.005
1.05075	-0.025
1.051	-0.11
1.05125	-0.175
1.0515	-0.18
1.05175	-0.22
1.052	-0.175
1.05225	-0.24
1.0525	-0.03
1.05275	0.53
1.053	1.21
1.05325	1.22
1.0535	-0.105
1.05375	-0.795
1.054	-0.69
1.05425	-0.375
1.0545	-0.165
1.05475	-0.155
1.055	-0.135
1.05525	-0.15
1.0555	-0.12
1.05575	-0.12
1.056	-0.09
1.05625	-0.095
1.0565	-0.05
1.05675	-0.05
1.057	-0.01
1.05725	-0.005
1.0575	0.03
1.05775	0.08
1.058	0.075
1.05825	0.145
1.0585	0.155
1.05875	0.2
1.059	0.2
1.05925	0.24
1.0595	0.235
1.05975	0.245
1.06	0.245
1.06025	0.215
1.0605	0.18
1.06075	0.15
1.061	0.09
1.06125	0.035
1.0615	0.025
1.06175	0
1.062	-0.015
1.06225	-0.03
1.0625	0
1.06275	-0.02
1.063	-0.005
1.06325	-0.025
1.0635	-0.03
1.06375	-0.015
1.064	-0.01
1.06425	-0.035
1.0645	-0.04
1.06475	-0.05
1.065	-0.045
1.06525	-0.04
1.0655	-0.075
1.06575	-0.065
1.066	-0.095
1.06625	-0.085
1.0665	-0.085
1.06675	-0.09
1.067	-0.1
1.06725	-0.1
1.0675	-0.08
1.06775	-0.105
1.068	-0.105
1.06825	-0.1
1.0685	-0.105
1.06875	-0.095
1.069	-0.1
1.06925	-0.09
1.0695	-0.035
1.06975	0.01
1.07	0.035
1.07025	0.07
1.0705	0.19
1.07075	0.125
1.071	0.045
1.07125	-0.035
1.0715	-0.06
1.07175	-0.155
1.072	-0.21
1.07225	-0.225
1.0725	-0.2
1.07275	-0.215
1.073	-0.265
1.07325	0.07
1.0735	0.865
1.07375	1.495
1.074	0.625
1.07425	-0.44
1.0745	-0.815
1.07475	-0.6
1.075	-0.31
1.07525	-0.175
1.0755	-0.18
1.07575	-0.165
1.076	-0.135
1.07625	-0.135
1.0765	-0.115
1.07675	-0.105
1.077	-0.085
1.07725	-0.06
1.0775	-0.03
1.07775	-0.02
1.078	0.015
1.07825	0.05
1.0785	0.07
1.07875	0.105
1.079	0.165
1.07925	0.2
1.0795	0.205
1.07975	0.235
1.08	0.235
1.08025	0.265
1.0805	0.26
1.08075	0.235
1.081	0.215
1.08125	0.17
1.0815	0.125
1.08175	0.09
1.082	0.025
1.08225	-0.015
1.0825	-0.03
1.08275	-0.035
1.083	-0.04
1.08325	-0.04
1.0835	-0.035
1.08375	-0.04
1.084	-0.02
1.08425	-0.04
1.0845	-0.04
1.08475	-0.03
1.085	-0.045
1.08525	-0.065
1.0855	-0.06
1.08575	-0.06
1.086	-0.09
1.08625	-0.08
1.0865	-0.095
1.08675	-0.085
1.087	-0.105
1.08725	-0.09
1.0875	-0.1
1.08775	-0.105
1.088	-0.115
1.08825	-0.1
1.0885	-0.115
1.08875	-0.11
1.089	-0.135
1.08925	-0.095
1.0895	-0.125
1.08975	-0.105
1.09	-0.085
1.09025	-0.015
1.0905	0.02
1.09075	0.03
1.091	0.135
1.09125	0.16
1.0915	0.105
1.09175	0.03
1.092	-0.05
1.09225	-0.05
1.0925	-0.17
1.09275	-0.205
1.093	-0.215
1.09325	-0.175
1.0935	-0.21
1.09375	-0.215
1.094	0.175
1.09425	1.09
1.0945	1.7
1.09475	0.335
1.095	-0.615
1.09525	-0.705
1.0955	-0.46
1.09575	-0.175
1.096	-0.165
1.09625	-0.145
1.0965	-0.155
1.09675	-0.115
1.097	-0.12
1.09725	-0.105
1.0975	-0.105
1.09775	-0.085
1.098	-0.06
1.09825	-0.015
1.0985	-0.005
1.09875	0.02
1.099	0.05
1.09925	0.08
1.0995	0.105
1.09975	0.18
1.1	0.205
1.10025	0.24
1.1005	0.235
1.10075	0.27
1.101	0.27
1.10125	0.28
1.1015	0.26
1.10175	0.23
1.102	0.175
1.10225	0.135
1.1025	0.09
1.10275	0.045
1.103	0
1.10325	-0.005
1.1035	-0.025
1.10375	-0.025
1.104	-0.025
1.10425	-0.02
1.1045	0
1.10475	-0.005
1.105	-0.005
1.10525	-0.005
1.1055	-0.005
1.10575	-0.01
1.106	-0.025
1.10625	-0.02
1.1065	-0.04
1.10675	-0.04
1.107	-0.04
1.10725	-0.05
1.1075	-0.06
1.10775	-0.05
1.108	-0.065
1.10825	-0.06
1.1085	-0.07
1.10875	-0.06
1.109	-0.09
1.10925	-0.08
1.1095	-0.095
1.10975	-0.085
1.11	-0.1
1.11025	-0.09
1.1105	-0.095
1.11075	-0.085
1.111	-0.1
1.11125	-0.075
1.1115	-0.095
1.11175	-0.08
1.112	-0.075
1.11225	0
1.1125	0.03
1.11275	0.035
1.113	0.135
1.11325	0.145
1.1135	0.07
1.11375	0.015
1.114	-0.045
1.11425	-0.055
1.1145	-0.185
1.11475	-0.19
1.115	-0.22
1.11525	-0.18
1.1155	-0.21
1.11575	-0.185
1.116	0.22
1.11625	1.15
1.1165	1.72
1.11675	0.155
1.117	-0.7
1.11725	-0.66
1.1175	-0.405
1.11775	-0.15
1.118	-0.16
1.11825	-0.135
1.1185	-0.145
1.11875	-0.12
1.119	-0.125
1.11925	-0.09
1.1195	-0.09
1.11975	-0.055
1.12	-0.04
1.12025	-0.015
1.1205	0
1.12075	0.03
1.121	0.05
1.12125	0.095
1.1215	0.11
1.12175	0.165
1.122	0.19
1.12225	0.23
1.1225	0.245
1.12275	0.255
1.123	0.255
1.12325	0.265
1.1235	0.255
1.12375	0.23
1.124	0.185
1.12425	0.145
1.1245	0.1
1.12475	0.06
1.125	0.025
1.12525	0.025
1.1255	0.01
1.12575	0.01
1.126	0.01
1.12625	0.015
1.1265	0.01
1.12675	0.025
1.127	0.02
1.12725	0.02
1.1275	0.02
1.12775	0.015
1.128	0
1.12825	0
1.1285	-0.01
1.12875	-0.015
1.129	-0.02
1.12925	-0.03
1.1295	-0.035
1.12975	-0.035
1.13	-0.045
1.13025	-0.04
1.1305	-0.045
1.13075	-0.045
1.131	-0.055
1.13125	-0.045
1.1315	-0.055
1.13175	-0.045
1.132	-0.06
1.13225	-0.05
1.1325	-0.06
1.13275	-0.055
1.133	-0.08
1.13325	-0.065
1.1335	-0.09
1.13375	-0.075
1.134	-0.09
1.13425	-0.07
1.1345	-0.075
1.13475	-0.065
1.135	-0.08
1.13525	-0.065
1.1355	-0.03
1.13575	0.025
1.136	0.04
1.13625	0.065
1.1365	0.18
1.13675	0.145
1.137	0.055
1.13725	0.015
1.1375	-0.035
1.13775	-0.06
1.138	-0.175
1.13825	-0.17
1.1385	-0.195
1.13875	-0.175
1.139	-0.22
1.13925	-0.115
1.1395	0.355
1.13975	1.24
1.14	1.595
1.14025	-0.115
1.1405	-0.815
1.14075	-0.565
1.141	-0.3
1.14125	-0.13
1.1415	-0.16
1.14175	-0.13
1.142	-0.135
1.14225	-0.11
1.1425	-0.12
1.14275	-0.09
1.143	-0.085
1.14325	-0.055
1.1435	-0.04
1.14375	-0.005
1.144	0
1.14425	0.04
1.1445	0.05
1.14475	0.095
1.145	0.125
1.14525	0.17
1.1455	0.19
1.14575	0.22
1.146	0.23
1.14625	0.245
1.1465	0.25
1.14675	0.26
1.147	0.24
1.14725	0.22
1.1475	0.175
1.14775	0.135
1.148	0.085
1.14825	0.055
1.1485	0.02
1.14875	0.015
1.149	0.01
1.14925	0.01
1.1495	0
1.14975	0
1.15	0
1.15025	0.01
1.1505	0.005
1.15075	0.02
1.151	0.01
1.15125	0
1.1515	-0.01
1.15175	-0.015
1.152	-0.02
1.15225	-0.02
1.1525	-0.025
1.15275	-0.035
1.153	-0.03
1.15325	-0.045
1.1535	-0.05
1.15375	-0.05
1.154	-0.055
1.15425	-0.065
1.1545	-0.065
1.15475	-0.06
1.155	-0.065
1.15525	-0.07
1.1555	-0.06
1.15575	-0.06
1.156	-0.055
1.15625	-0.06
1.1565	-0.065
1.15675	-0.08
1.157	-0.065
1.15725	-0.08
1.1575	-0.065
1.15775	-0.075
1.158	-0.07
1.15825	-0.085
1.1585	-0.07
1.15875	-0.085
1.159	-0.075
1.15925	-0.085
1.1595	-0.06
1.15975	-0.045
1.16	0.02
1.16025	0.04
1.1605	0.055
1.16075	0.18
1.161	0.155
1.16125	0.06
1.1615	0.02
1.16175	-0.025
1.162	-0.055
1.16225	-0.18
1.1625	-0.16
1.16275	-0.17
1.163	-0.165
1.16325	-0.195
1.1635	-0.1
1.16375	0.35
1.164	1.115
1.16425	1.495
1.1645	-0.04
1.16475	-0.73
1.165	-0.62
1.16525	-0.365
1.1655	-0.13
1.16575	-0.15
1.166	-0.135
1.16625	-0.15
1.1665	-0.12
1.16675	-0.13
1.167	-0.105
1.16725	-0.09
1.1675	-0.055
1.16775	-0.06
1.168	-0.035
1.16825	-0.015
1.1685	0.02
1.16875	0.045
1.169	0.065
1.16925	0.095
1.1695	0.145
1.16975	0.18
1.17	0.215
1.17025	0.2
1.1705	0.225
1.17075	0.235
1.171	0.245
1.17125	0.235
1.1715	0.225
1.17175	0.175
1.172	0.13
1.17225	0.09
1.1725	0.05
1.17275	0.035
1.173	0.015
1.17325	0.005
1.1735	0
1.17375	-0.005
1.174	0
1.17425	0
1.1745	0
1.17475	0
1.175	-0.005
1.17525	-0.005
1.1755	-0.02
1.17575	-0.02
1.176	-0.04
1.17625	-0.05
1.1765	-0.06
1.17675	-0.06
1.177	-0.06
1.17725	-0.07
1.1775	-0.065
1.17775	-0.075
1.178	-0.07
1.17825	-0.065
1.1785	-0.075
1.17875	-0.075
1.179	-0.075
1.17925	-0.09
1.1795	-0.075
1.17975	-0.085
1.18	-0.08
1.18025	-0.09
1.1805	-0.075
1.18075	-0.09
1.181	-0.08
1.18125	-0.09
1.1815	-0.08
1.18175	-0.1
1.182	-0.085
1.18225	-0.1
1.1825	-0.075
1.18275	-0.085
1.183	-0.09
1.18325	-0.075
1.1835	-0.015
1.18375	0.025
1.184	0.055
1.18425	0.155
1.1845	0.16
1.18475	0.095
1.185	0.015
1.18525	-0.035
1.1855	-0.05
1.18575	-0.175
1.186	-0.17
1.18625	-0.19
1.1865	-0.175
1.18675	-0.2
1.187	-0.105
1.18725	0.335
1.1875	1.095
1.18775	1.47
1.188	0.065
1.18825	-0.66
1.1885	-0.69
1.18875	-0.44
1.189	-0.185
1.18925	-0.16
1.1895	-0.135
1.18975	-0.135
1.19	-0.115
1.19025	-0.115
1.1905	-0.11
1.19075	-0.095
1.191	-0.055
1.19125	-0.05
1.1915	-0.015
1.19175	-0.005
1.192	0.045
1.19225	0.05
1.1925	0.095
1.19275	0.12
1.193	0.165
1.19325	0.185
1.1935	0.21
1.19375	0.225
1.194	0.245
1.19425	0.24
1.1945	0.24
1.19475	0.235
1.195	0.21
1.19525	0.165
1.1955	0.125
1.19575	0.07
1.196	0.045
1.19625	0.01
1.1965	0.02
1.19675	0.005
1.197	0
1.19725	0
1.1975	0
1.19775	0
1.198	0
1.19825	-0.005
1.1985	-0.01
1.19875	-0.005
1.199	-0.025
1.19925	-0.005
1.1995	-0.04
1.19975	-0.04
1.2	-0.045
1.20025	-0.045
1.2005	-0.04
1.20075	-0.055
1.201	-0.065
1.20125	-0.05
1.2015	-0.065
1.20175	-0.065
1.202	-0.065
1.20225	-0.065
1.2025	-0.07
1.20275	-0.065
1.203	-0.07
1.20325	-0.065
1.2035	-0.07
1.20375	-0.07
1.204	-0.085
1.20425	-0.06
1.2045	-0.09
1.20475	-0.065
1.205	-0.085
1.20525	-0.08
1.2055	-0.085
1.20575	-0.05
1.206	-0.09
1.20625	-0.075
1.2065	-0.055
1.20675	0.005
1.207	0.055
1.20725	0.06
1.2075	0.16
1.20775	0.155
1.208	0.08
1.20825	0.015
1.2085	-0.02
1.20875	-0.045
1.209	-0.17
1.20925	-0.17
1.2095	-0.175
1.20975	-0.16
1.21	-0.2
1.21025	-0.105
1.2105	0.36
1.21075	1.16
1.211	1.55
1.21125	0.07
1.2115	-0.69
1.21175	-0.66
1.212	-0.41
1.21225	-0.155
1.2125	-0.155
1.21275	-0.135
1.213	-0.135
1.21325	-0.105
1.2135	-0.11
1.21375	-0.085
1.214	-0.09
1.21425	-0.065
1.2145	-0.045
1.21475	-0.005
1.215	0
1.21525	0.04
1.2155	0.065
1.21575	0.1
1.216	0.12
1.21625	0.175
1.2165	0.19
1.21675	0.23
1.217	0.255
1.21725	0.27
1.2175	0.265
1.21775	0.275
1.218	0.245
1.21825	0.215
1.2185	0.175
1.21875	0.14
1.219	0.095
1.21925	0.04
1.2195	0.025
1.21975	0.015
1.22	0
1.22025	0
1.2205	0
1.22075	0
1.221	0
1.22125	0
1.2215	0
1.22175	0
1.222	-0.005
1.22225	-0.01
1.2225	-0.01
1.22275	-0.015
1.223	-0.03
1.22325	-0.035
1.2235	-0.045
1.22375	-0.045
1.224	-0.05
1.22425	-0.045
1.2245	-0.065
1.22475	-0.07
1.225	-0.075
1.22525	-0.07
1.2255	-0.09
1.22575	-0.085
1.226	-0.09
1.22625	-0.07
1.2265	-0.085
1.22675	-0.085
1.227	-0.095
1.22725	-0.085
1.2275	-0.09
1.22775	-0.085
1.228	-0.09
1.22825	-0.09
1.2285	-0.1
1.22875	-0.09
1.229	-0.105
1.22925	-0.09
1.2295	-0.1
1.22975	-0.085
1.23	-0.055
1.23025	0
1.2305	0.035
1.23075	0.05
1.231	0.17
1.23125	0.135
1.2315	0.06
1.23175	0.01
1.232	-0.035
1.23225	-0.075
1.2325	-0.19
1.23275	-0.185
1.233	-0.205
1.23325	-0.18
1.2335	-0.225
1.23375	-0.11
1.234	0.38
1.23425	1.215
1.2345	1.545
1.23475	-0.025
1.235	-0.765
1.23525	-0.62
1.2355	-0.37
1.23575	-0.155
1.236	-0.17
1.23625	-0.145
1.2365	-0.16
1.23675	-0.13
1.237	-0.145
1.23725	-0.125
1.2375	-0.12
1.23775	-0.08
1.238	-0.065
1.23825	-0.035
1.2385	-0.02
1.23875	0.01
1.239	0.035
1.23925	0.08
1.2395	0.105
1.23975	0.155
1.24	0.18
1.24025	0.22
1.2405	0.225
1.24075	0.24
1.241	0.235
1.24125	0.245
1.2415	0.225
1.24175	0.2
1.242	0.155
1.24225	0.115
1.2425	0.075
1.24275	0.05
1.243	0.02
1.24325	0
1.2435	-0.01
1.24375	-0.015
1.244	-0.01
1.24425	-0.01
1.2445	-0.005
1.24475	0
1.245	0
1.24525	0
1.2455	0
1.24575	0
1.246	-0.005
1.24625	-0.01
1.2465	-0.02
1.24675	-0.025
1.247	-0.035
1.24725	-0.045
1.2475	-0.055
1.24775	-0.055
1.248	-0.06
1.24825	-0.06
1.2485	-0.06
1.24875	-0.055
1.249	-0.055
1.24925	-0.055
1.2495	-0.065
1.24975	-0.06
1.25	-0.055
1.25025	-0.06
1.2505	-0.065
1.25075	-0.06
1.251	-0.075
1.25125	-0.065
1.2515	-0.07
1.25175	-0.07
1.252	-0.09
1.25225	-0.08
1.2525	-0.095
1.25275	-0.08
1.253	-0.095
1.25325	-0.08
1.2535	-0.095
1.25375	-0.085
1.254	-0.09
1.25425	-0.09
1.2545	-0.1
1.25475	-0.085
1.255	-0.105
1.25525	-0.09
1.2555	-0.045
1.25575	0.005
1.256	0.015
1.25625	0.045
1.2565	0.155
1.25675	0.14
1.257	0.045
1.25725	0.005
1.2575	-0.04
1.25775	-0.085
1.258	-0.2
1.25825	-0.195
1.2585	-0.2
1.25875	-0.2
1.259	-0.24
1.25925	-0.13
1.2595	0.34
1.25975	1.155
1.26	1.47
1.26025	-0.155
1.2605	-0.825
1.26075	-0.59
1.261	-0.35
1.26125	-0.155
1.2615	-0.17
1.26175	-0.14
1.262	-0.155
1.26225	-0.115
1.2625	-0.125
1.26275	-0.09
1.263	-0.095
1.26325	-0.065
1.2635	-0.055
1.26375	-0.015
1.264	-0.005
1.26425	0.035
1.2645	0.045
1.26475	0.09
1.265	0.11
1.26525	0.15
1.2655	0.18
1.26575	0.205
1.266	0.225
1.26625	0.23
1.2665	0.22
1.26675	0.235
1.267	0.23
1.26725	0.2
1.2675	0.17
1.26775	0.12
1.268	0.075
1.26825	0.04
1.2685	0.02
1.26875	0.005
1.269	-0.005
1.26925	-0.005
1.2695	-0.01
1.26975	-0.015
1.27	-0.01
1.27025	0
1.2705	-0.005
1.27075	-0.02
1.271	-0.02
1.27125	-0.015
1.2715	-0.025
1.27175	-0.035
1.272	-0.045
1.27225	-0.045
1.2725	-0.06
1.27275	-0.065
1.273	-0.07
1.27325	-0.055
1.2735	-0.06
1.27375	-0.08
1.274	-0.075
1.27425	-0.09
1.2745	-0.065
1.27475	-0.075
1.275	-0.08
1.27525	-0.08
1.2755	-0.085
1.27575	-0.09
1.276	-0.075
1.27625	-0.085
1.2765	-0.095
1.27675	-0.105
1.277	-0.09
1.27725	-0.095
1.2775	-0.07
1.27775	-0.045
1.278	0.005
1.27825	0.03
1.2785	0.07
1.27875	0.195
1.279	0.145
1.27925	0.05
1.2795	-0.015
1.27975	-0.025
1.28	-0.115
1.28025	-0.18
1.2805	-0.19
1.28075	-0.185
1.281	-0.185
1.28125	-0.215
1.2815	0.01
1.28175	0.575
1.282	1.185
1.28225	0.96
1.2825	-0.16
1.28275	-0.74
1.283	-0.64
1.28325	-0.35
1.2835	-0.175
1.28375	-0.145
1.284	-0.15
1.28425	-0.145
1.2845	-0.105
1.28475	-0.12
1.285	-0.09
1.28525	-0.085
1.2855	-0.07
1.28575	-0.04
1.286	-0.02
1.28625	0.005
1.2865	0.02
1.28675	0.045
1.287	0.08
1.28725	0.115
1.2875	0.14
1.28775	0.165
1.288	0.21
1.28825	0.19
1.2885	0.22
1.28875	0.21
1.289	0.215
1.28925	0.215
1.2895	0.16
1.28975	0.135
1.29	0.1
1.29025	0.05
1.2905	0.035
1.29075	-0.005
1.291	0.005
1.29125	-0.005
1.2915	-0.015
1.29175	-0.02
1.292	-0.01
1.29225	0
1.2925	-0.02
1.29275	-0.005
1.293	-0.04
1.29325	-0.035
1.2935	-0.05
1.29375	-0.04
1.294	-0.055
1.29425	-0.075
1.2945	-0.05
1.29475	-0.075
1.295	-0.09
1.29525	-0.08
1.2955	-0.09
1.29575	-0.08
1.296	-0.075
1.29625	-0.085
1.2965	-0.085
1.29675	-0.095
1.297	-0.095
1.29725	-0.105
1.2975	-0.08
1.29775	-0.115
1.298	-0.1
1.29825	-0.095
1.2985	-0.1
1.29875	-0.075
1.299	-0.005
1.29925	0.01
1.2995	0.055
1.29975	0.185
1.3	0.145
1.30025	0.075
1.3005	-0.005
1.30075	-0.025
1.301	-0.11
1.30125	-0.175
1.3015	-0.18
1.30175	-0.22
1.302	-0.175
1.30225	-0.24
1.3025	-0.03
1.30275	0.53
1.303	1.21
1.30325	1.22
1.3035	-0.105
1.30375	-0.795
1.304	-0.69
1.30425	-0.375
1.3045	-0.165
1.30475	-0.155
1.305	-0.135
1.30525	-0.15
1.3055	-0.12
1.30575	-0.12
1.306	-0.09
1.30625	-0.095
1.3065	-0.05
1.30675	-0.05
1.307	-0.01
1.30725	-0.005
1.3075	0.03
1.30775	0.08
1.308	0.075
1.30825	0.145
1.3085	0.155
1.30875	0.2
1.309	0.2
1.30925	0.24
1.3095	0.235
1.30975	0.245
1.31	0.245
1.31025	0.215
1.3105	0.18
1.31075	0.15
1.311	0.09
1.31125	0.035
1.3115	0.025
1.31175	0
1.312	-0.015
1.31225	-0.03
1.3125	0
1.31275	-0.02
1.313	-0.005
1.31325	-0.025
1.3135	-0.03
1.31375	-0.015
1.314	-0.01
1.31425	-0.035
1.3145	-0.04
1.31475	-0.05
1.315	-0.045
1.31525	-0.04
1.3155	-0.075
1.31575	-0.065
1.316	-0.095
1.31625	-0.085
1.3165	-0.085
1.31675	-0.09
1.317	-0.1
1.31725	-0.1
1.3175	-0.08
1.31775	-0.105
1.318	-0.105
1.31825	-0.1
1.3185	-0.105
1.31875	-0.095
1.319	-0.1
1.31925	-0.09
1.3195	-0.035
1.31975	0.01
1.32	0.035
1.32025	0.07
1.3205	0.19
1.32075	0.125
1.321	0.045
1.32125	-0.035
1.3215	-0.06
1.32175	-0.155
1.322	-0.21
1.32225	-0.225
1.3225	-0.2
1.32275	-0.215
1.323	-0.265
1.32325	0.07
1.3235	0.865
1.32375	1.495
1.324	0.625
1.32425	-0.44
1.3245	-0.815
1.32475	-0.6
1.325	-0.31
1.32525	-0.175
1.3255	-0.18
1.32575	-0.165
1.326	-0.135
1.32625	-0.135
1.3265	-0.115
1.32675	-0.105
1.327	-0.085
1.32725	-0.06
1.3275	-0.03
1.32775	-0.02
1.328	0.015
1.32825	0.05
1.3285	0.07
1.32875	0.105
1.329	0.165
1.32925	0.2
1.3295	0.205
1.32975	0.235
1.33	0.235
1.33025	0.265
1.3305	0.26
1.33075	0.235
1.331	0.215
1.33125	0.17
1.3315	0.125
1.33175	0.09
1.332	0.025
1.33225	-0.015
1.3325	-0.03
1.33275	-0.035
1.333	-0.04
1.33325	-0.04
1.3335	-0.035
1.33375	-0.04
1.334	-0.02
1.33425	-0.04
1.3345	-0.04
1.33475	-0.03
1.335	-0.045
1.33525	-0.065
1.3355	-0.06
1.33575	-0.06
1.336	-0.09
1.33625	-0.08
1.3365	-0.095
1.33675	-0.085
1.337	-0.105
1.33725	-0.09
1.3375	-0.1
1.33775	-0.105
1.338	-0.115
1.33825	-0.1
1.3385	-0.115
1.33875	-0.11
1.339	-0.135
1.33925	-0.095
1.3395	-0.125
1.33975	-0.105
1.34	-0.085
1.34025	-0.015
1.3405	0.02
1.34075	0.03
1.341	0.135
1.34125	0.16
1.3415	0.105
1.34175	0.03
1.342	-0.05
1.34225	-0.05
1.3425	-0.17
1.34275	-0.205
1.343	-0.215
1.34325	-0.175
1.3435	-0.21
1.34375	-0.215
1.344	0.175
1.34425	1.09
1.3445	1.7
1.34475	0.335
1.345	-0.615
1.34525	-0.705
1.3455	-0.46
1.34575	-0.175
1.346	-0.165
1.34625	-0.145
1.3465	-0.155
1.34675	-0.115
1.347	-0.12
1.34725	-0.105
1.3475	-0.105
1.34775	-0.085
1.348	-0.06
1.34825	-0.015
1.3485	-0.005
1.34875	0.02
1.349	0.05
1.34925	0.08
1.3495	0.105
1.34975	0.18
1.35	0.205
1.35025	0.24
1.3505	0.235
1.35075	0.27
1.351	0.27
1.35125	0.28
1.3515	0.26
1.35175	0.23
1.352	0.175
1.35225	0.135
1.3525	0.09
1.35275	0.045
1.353	0
1.35325	-0.005
1.3535	-0.025
1.35375	-0.025
1.354	-0.025
1.35425	-0.02
1.3545	0
1.35475	-0.005
1.355	-0.005
1.35525	-0.005
1.3555	-0.005
1.35575	-0.01
1.356	-0.025
1.35625	-0.02
1.3565	-0.04
1.35675	-0.04
1.357	-0.04
1.35725	-0.05
1.3575	-0.06
1.35775	-0.05
1.358	-0.065
1.35825	-0.06
1.3585	-0.07
1.35875	-0.06
1.359	-0.09
1.35925	-0.08
1.3595	-0.095
1.35975	-0.085
1.36	-0.1
1.36025	-0.09
1.3605	-0.095
1.36075	-0.085
1.361	-0.1
1.36125	-0.075
1.3615	-0.095
1.36175	-0.08
1.362	-0.075
1.36225	0
1.3625	0.03
1.36275	0.035
1.363	0.135
1.36325	0.145
1.3635	0.07
1.36375	0.015
1.364	-0.045
1.36425	-0.055
1.3645	-0.185
1.36475	-0.19
1.365	-0.22
1.36525	-0.18
1.3655	-0.21
1.36575	-0.185
1.366	0.22
1.36625	1.15
1.3665	1.72
1.36675	0.155
1.367	-0.7
1.36725	-0.66
1.3675	-0.405
1.36775	-0.15
1.368	-0.16
1.36825	-0.135
1.3685	-0.145
1.36875	-0.12
1.369	-0.125
1.36925	-0.09
1.3695	-0.09
1.36975	-0.055
1.37	-0.04
1.37025	-0.015
1.3705	0
1.37075	0.03
1.371	0.05
1.37125	0.095
1.3715	0.11
1.37175	0.165
1.372	0.19
1.37225	0.23
1.3725	0.245
1.37275	0.255
1.373	0.255
1.37325	0.265
1.3735	0.255
1.37375	0.23
1.374	0.185
1.37425	0.145
1.3745	0.1
1.37475	0.06
1.375	0.025
1.37525	0.025
1.3755	0.01
1.37575	0.01
1.376	0.01
1.37625	0.015
1.3765	0.01
1.37675	0.025
1.377	0.02
1.37725	0.02
1.3775	0.02
1.37775	0.015
1.378	0
1.37825	0
1.3785	-0.01
1.37875	-0.015
1.379	-0.02
1.37925	-0.03
1.3795	-0.035
1.37975	-0.035
1.38	-0.045
1.38025	-0.04
1.3805	-0.045
1.38075	-0.045
1.381	-0.055
1.38125	-0.045
1.3815	-0.055
1.38175	-0.045
1.382	-0.06
1.38225	-0.05
1.3825	-0.06
1.38275	-0.055
1.383	-0.08
1.38325	-0.065
1.3835	-0.09
1.38375	-0.075
1.384	-0.09
1.38425	-0.07
1.3845	-0.075
1.38475	-0.065
1.385	-0.08
1.38525	-0.065
1.3855	-0.03
1.38575	0.025
1.386	0.04
1.38625	0.065
1.3865	0.18
1.38675	0.145
1.387	0.055
1.38725	0.015
1.3875	-0.035
1.38775	-0.06
1.388	-0.175
1.38825	-0.17
1.3885	-0.195
1.38875	-0.175
1.389	-0.22
1.38925	-0.115
1.3895	0.355
1.38975	1.24
1.39	1.595
1.39025	-0.115
1.3905	-0.815
1.39075	-0.565
1.391	-0.3
1.39125	-0.13
1.3915	-0.16
1.39175	-0.13
1.392	-0.135
1.39225	-0.11
1.3925	-0.12
1.39275	-0.09
1.393	-0.085
1.39325	-0.055
1.3935	-0.04
1.39375	-0.005
1.394	0
1.39425	0.04
1.3945	0.05
1.39475	0.095
1.395	0.125
1.39525	0.17
1.3955	0.19
1.39575	0.22
1.396	0.23
1.39625	0.245
1.3965	0.25
1.39675	0.26
1.397	0.24
1.39725	0.22
1.3975	0.175
1.39775	0.135
1.398	0.085
1.39825	0.055
1.3985	0.02
1.39875	0.015
1.399	0.01
1.39925	0.01
1.3995	0
1.39975	0
1.4	0
1.40025	0.01
1.4005	0.005
1.40075	0.02
1.401	0.01
1.40125	0
1.4015	-0.01
1.40175	-0.015
1.402	-0.02
1.40225	-0.02
1.4025	-0.025
1.40275	-0.035
1.403	-0.03
1.40325	-0.045
1.4035	-0.05
1.40375	-0.05
1.404	-0.055
1.40425	-0.065
1.4045	-0.065
1.40475	-0.06
1.405	-0.065
1.40525	-0.07
1.4055	-0.06
1.40575	-0.06
1.406	-0.055
1.40625	-0.06
1.4065	-0.065
1.40675	-0.08
1.407	-0.065
1.40725	-0.08
1.4075	-0.065
1.40775	-0.075
1.408	-0.07
1.40825	-0.085
1.4085	-0.07
1.40875	-0.085
1.409	-0.075
1.40925	-0.085
1.4095	-0.06
1.40975	-0.045
1.41	0.02
1.41025	0.04
1.4105	0.055
1.41075	0.18
1.411	0.155
1.41125	0.06
1.4115	0.02
1.41175	-0.025
1.412	-0.055
1.41225	-0.18
1.4125	-0.16
1.41275	-0.17
1.413	-0.165
1.41325	-0.195
1.4135	-0.1
1.41375	0.35
1.414	1.115
1.41425	1.495
1.4145	-0.04
1.41475	-0.73
1.415	-0.62
1.41525	-0.365
1.4155	-0.13
1.41575	-0.15
1.416	-0.135
1.41625	-0.15
1.4165	-0.12
1.41675	-0.13
1.417	-0.105
1.41725	-0.09
1.4175	-0.055
1.41775	-0.06
1.418	-0.035
1.41825	-0.015
1.4185	0.02
1.41875	0.045
1.419	0.065
1.41925	0.095
1.4195	0.145
1.41975	0.18
1.42	0.215
1.42025	0.2
1.4205	0.225
1.42075	0.235
1.421	0.245
1.42125	0.235
1.4215	0.225
1.42175	0.175
1.422	0.13
1.42225	0.09
1.4225	0.05
1.42275	0.035
1.423	0.015
1.42325	0.005
1.4235	0
1.42375	-0.005
1.424	0
1.42425	0
1.4245	0
1.42475	0
1.425	-0.005
1.42525	-0.005
1.4255	-0.02
1.42575	-0.02
1.426	-0.04
1.42625	-0.05
1.4265	-0.06
1.42675	-0.06
1.427	-0.06
1.42725	-0.07
1.4275	-0.065
1.42775	-0.075
1.428	-0.07
1.42825	-0.065
1.4285	-0.075
1.42875	-0.075
1.429	-0.075
1.42925	-0.09
1.4295	-0.075
1.42975	-0.085
1.43	-0.08
1.43025	-0.09
1.4305	-0.075
1.43075	-0.09
1.431	-0.08
1.43125	-0.09
1.4315	-0.08
1.43175	-0.1
1.432	-0.085
1.43225	-0.1
1.4325	-0.075
1.43275	-0.085
1.433	-0.09
1.43325	-0.075
1.4335	-0.015
1.43375	0.025
1.434	0.055
1.43425	0.155
1.4345	0.16
1.43475	0.095
1.435	0.015
1.43525	-0.035
1.4355	-0.05
1.43575	-0.175
1.436	-0.17
1.43625	-0.19
1.4365	-0.175
1.43675	-0.2
1.437	-0.105
1.43725	0.335
1.4375	1.095
1.43775	1.47
1.438	0.065
1.43825	-0.66
1.4385	-0.69
1.43875	-0.44
1.439	-0.185
1.43925	-0.16
1.4395	-0.135
1.43975	-0.135
1.44	-0.115
1.44025	-0.115
1.4405	-0.11
1.44075	-0.095
1.441	-0.055
1.44125	-0.05
1.4415	-0.015
1.44175	-0.005
1.442	0.045
1.44225	0.05
1.4425	0.095
1.44275	0.12
1.443	0.165
1.44325	0.185
1.4435	0.21
1.44375	0.225
1.444	0.245
1.44425	0.24
1.4445	0.24
1.44475	0.235
1.445	0.21
1.44525	0.165
1.4455	0.125
1.44575	0.07
1.446	0.045
1.44625	0.01
1.4465	0.02
1.44675	0.005
1.447	0
1.44725	0
1.4475	0
1.44775	0
1.448	0
1.44825	-0.005
1.4485	-0.01
1.44875	-0.005
1.449	-0.025
1.44925	-0.005
1.4495	-0.04
1.44975	-0.04
1.45	-0.045
1.45025	-0.045
1.4505	-0.04
1.45075	-0.055
1.451	-0.065
1.45125	-0.05
1.4515	-0.065
1.45175	-0.065
1.452	-0.065
1.45225	-0.065
1.4525	-0.07
1.45275	-0.065
1.453	-0.07
1.45325	-0.065
1.4535	-0.07
1.45375	-0.07
1.454	-0.085
1.45425	-0.06
1.4545	-0.09
1.45475	-0.065
1.455	-0.085
1.45525	-0.08
1.4555	-0.085
1.45575	-0.05
1.456	-0.09
1.45625	-0.075
1.4565	-0.055
1.45675	0.005
1.457	0.055
1.45725	0.06
1.4575	0.16
1.45775	0.155
1.458	0.08
1.45825	0.015
1.4585	-0.02
1.45875	-0.045
1.459	-0.17
1.45925	-0.17
1.4595	-0.175
1.45975	-0.16
1.46	-0.2
1.46025	-0.105
1.4605	0.36
1.46075	1.16
1.461	1.55
1.46125	0.07
1.4615	-0.69
1.46175	-0.66
1.462	-0.41
1.46225	-0.155
1.4625	-0.155
1.46275	-0.135
1.463	-0.135
1.46325	-0.105
1.4635	-0.11
1.46375	-0.085
1.464	-0.09
1.46425	-0.065
1.4645	-0.045
1.46475	-0.005
1.465	0
1.46525	0.04
1.4655	0.065
1.46575	0.1
1.466	0.12
1.46625	0.175
1.4665	0.19
1.46675	0.23
1.467	0.255
1.46725	0.27
1.4675	0.265
1.46775	0.275
1.468	0.245
1.46825	0.215
1.4685	0.175
1.46875	0.14
1.469	0.095
1.46925	0.04
1.4695	0.025
1.46975	0.015
1.47	0
1.47025	0
1.4705	0
1.47075	0
1.471	0
1.47125	0
1.4715	0
1.47175	0
1.472	-0.005
1.47225	-0.01
1.4725	-0.01
1.47275	-0.015
1.473	-0.03
1.47325	-0.035
1.4735	-0.045
1.47375	-0.045
1.474	-0.05
1.47425	-0.045
1.4745	-0.065
1.47475	-0.07
1.475	-0.075
1.47525	-0.07
1.4755	-0.09
1.47575	-0.085
1.476	-0.09
1.47625	-0.07
1.4765	-0.085
1.47675	-0.085
1.477	-0.095
1.47725	-0.085
1.4775	-0.09
1.47775	-0.085
1.478	-0.09
1.47825	-0.09
1.4785	-0.1
1.47875	-0.09
1.479	-0.105
1.47925	-0.09
1.4795	-0.1
1.47975	-0.085
1.48	-0.055
1.48025	0
1.4805	0.035
1.48075	0.05
1.481	0.17
1.48125	0.135
1.4815	0.06
1.48175	0.01
1.482	-0.035
1.48225	-0.075
1.4825	-0.19
1.48275	-0.185
1.483	-0.205
1.48325	-0.18
1.4835	-0.225
1.48375	-0.11
1.484	0.38
1.48425	1.215
1.4845	1.545
1.48475	-0.025
1.485	-0.765
1.48525	-0.62
1.4855	-0.37
1.48575	-0.155
1.486	-0.17
1.48625	-0.145
1.4865	-0.16
1.48675	-0.13
1.487	-0.145
1.48725	-0.125
1.4875	-0.12
1.48775	-0.08
1.488	-0.065
1.48825	-0.035
1.4885	-0.02
1.48875	0.01
1.489	0.035
1.48925	0.08
1.4895	0.105
1.48975	0.155
1.49	0.18
1.49025	0.22
1.4905	0.225
1.49075	0.24
1.491	0.235
1.49125	0.245
1.4915	0.225
1.49175	0.2
1.492	0.155
1.49225	0.115
1.4925	0.075
1.49275	0.05
1.493	0.02
1.49325	0
1.4935	-0.01
1.49375	-0.015
1.494	-0.01
1.49425	-0.01
1.4945	-0.005
1.49475	0
1.495	0
1.49525	0
1.4955	0
1.49575	0
1.496	-0.005
1.49625	-0.01
1.4965	-0.02
1.49675	-0.025
1.497	-0.035
1.49725	-0.045
1.4975	-0.055
1.49775	-0.055
1.498	-0.06
1.49825	-0.06
1.4985	-0.06
1.49875	-0.055
1.499	-0.055
1.49925	-0.055
1.4995	-0.065
1.49975	-0.06
1.5	-0.055
1.50025	-0.06
1.5005	-0.065
1.50075	-0.06
1.501	-0.075
1.50125	-0.065
1.5015	-0.07
1.50175	-0.07
1.502	-0.09
1.50225	-0.08
1.5025	-0.095
1.50275	-0.08
1.503	-0.095
1.50325	-0.08
1.5035	-0.095
1.50375	-0.085
1.504	-0.09
1.50425	-0.09
1.5045	-0.1
1.50475	-0.085
1.505	-0.105
1.50525	-0.09
1.5055	-0.045
1.50575	0.005
1.506	0.015
1.50625	0.045
1.5065	0.155
1.50675	0.14
1.507	0.045
1.50725	0.005
1.5075	-0.04
1.50775	-0.085
1.508	-0.2
1.50825	-0.195
1.5085	-0.2
1.50875	-0.2
1.509	-0.24
1.50925	-0.13
1.5095	0.34
1.50975	1.155
1.51	1.47
1.51025	-0.155
1.5105	-0.825
1.51075	-0.59
1.511	-0.35
1.51125	-0.155
1.5115	-0.17
1.51175	-0.14
1.512	-0.155
1.51225	-0.115
1.5125	-0.125
1.51275	-0.09
1.513	-0.095
1.51325	-0.065
1.5135	-0.055
1.51375	-0.015
1.514	-0.005
1.51425	0.035
1.5145	0.045
1.51475	0.09
1.515	0.11
1.51525	0.15
1.5155	0.18
1.51575	0.205
1.516	0.225
1.51625	0.23
1.5165	0.22
1.51675	0.235
1.517	0.23
1.51725	0.2
1.5175	0.17
1.51775	0.12
1.518	0.075
1.51825	0.04
1.5185	0.02
1.51875	0.005
1.519	-0.005
1.51925	-0.005
1.5195	-0.01
1.51975	-0.015
1.52	-0.01
1.52025	0
1.5205	-0.005
1.52075	-0.02
1.521	-0.02
1.52125	-0.015
1.5215	-0.025
1.52175	-0.035
1.522	-0.045
1.52225	-0.045
1.5225	-0.06
1.52275	-0.065
1.523	-0.07
1.52325	-0.055
1.5235	-0.06
1.52375	-0.08
1.524	-0.075
1.52425	-0.09
1.5245	-0.065
1.52475	-0.075
1.525	-0.08
1.52525	-0.08
1.5255	-0.085
1.52575	-0.09
1.526	-0.075
1.52625	-0.085
1.5265	-0.095
1.52675	-0.105
1.527	-0.09
1.52725	-0.095
1.5275	-0.07
1.52775	-0.045
1.528	0.005
1.52825	0.03
1.5285	0.07
1.52875	0.195
1.529	0.145
1.52925	0.05
1.5295	-0.015
1.52975	-0.025
1.53	-0.115
1.53025	-0.18
1.5305	-0.19
1.53075	-0.185
1.531	-0.185
1.53125	-0.215
1.5315	0.01
1.53175	0.575
1.532	1.185
1.53225	0.96
1.5325	-0.16
1.53275	-0.74
1.533	-0.64
1.53325	-0.35
1.5335	-0.175
1.53375	-0.145
1.534	-0.15
1.53425	-0.145
1.5345	-0.105
1.53475	-0.12
1.535	-0.09
1.53525	-0.085
1.5355	-0.07
1.53575	-0.04
1.536	-0.02
1.53625	0.005
1.5365	0.02
1.53675	0.045
1.537	0.08
1.53725	0.115
1.5375	0.14
1.53775	0.165
1.538	0.21
1.53825	0.19
1.5385	0.22
1.53875	0.21
1.539	0.215
1.53925	0.215
1.5395	0.16
1.53975	0.135
1.54	0.1
1.54025	0.05
1.5405	0.035
1.54075	-0.005
1.541	0.005
1.54125	-0.005
1.5415	-0.015
1.54175	-0.02
1.542	-0.01
1.54225	0
1.5425	-0.02
1.54275	-0.005
1.543	-0.04
1.54325	-0.035
1.5435	-0.05
1.54375	-0.04
1.544	-0.055
1.54425	-0.075
1.5445	-0.05
1.54475	-0.075
1.545	-0.09
1.54525	-0.08
1.5455	-0.09
1.54575	-0.08
1.546	-0.075
1.54625	-0.085
1.5465	-0.085
1.54675	-0.095
1.547	-0.095
1.54725	-0.105
1.5475	-0.08
1.54775	-0.115
1.548	-0.1
1.54825	-0.095
1.5485	-0.1
1.54875	-0.075
1.549	-0.005
1.54925	0.01
1.5495	0.055
1.54975	0.185
1.55	0.145
1.55025	0.075
1.5505	-0.005
1.55075	-0.025
1.551	-0.11
1.55125	-0.175
1.5515	-0.18
1.55175	-0.22
1.552	-0.175
1.55225	-0.24
1.5525	-0.03
1.55275	0.53
1.553	1.21
1.55325	1.22
1.5535	-0.105
1.55375	-0.795
1.554	-0.69
1.55425	-0.375
1.5545	-0.165
1.55475	-0.155
1.555	-0.135
1.55525	-0.15
1.5555	-0.12
1.55575	-0.12
1.556	-0.09
1.55625	-0.095
1.5565	-0.05
1.55675	-0.05
1.557	-0.01
1.55725	-0.005
1.5575	0.03
1.55775	0.08
1.558	0.075
1.55825	0.145
1.5585	0.155
1.55875	0.2
1.559	0.2
1.55925	0.24
1.5595	0.235
1.55975	0.245
1.56	0.245
1.56025	0.215
1.5605	0.18
1.56075	0.15
1.561	0.09
1.56125	0.035
1.5615	0.025
1.56175	0
1.562	-0.015
1.56225	-0.03
1.5625	0
1.56275	-0.02
1.563	-0.005
1.56325	-0.025
1.5635	-0.03
1.56375	-0.015
1.564	-0.01
1.56425	-0.035
1.5645	-0.04
1.56475	-0.05
1.565	-0.045
1.56525	-0.04
1.5655	-0.075
1.56575	-0.065
1.566	-0.095
1.56625	-0.085
1.5665	-0.085
1.56675	-0.09
1.567	-0.1
1.56725	-0.1
1.5675	-0.08
1.56775	-0.105
1.568	-0.105
1.56825	-0.1
1.5685	-0.105
1.56875	-0.095
1.569	-0.1
1.56925	-0.09
1.5695	-0.035
1.56975	0.01
1.57	0.035
1.57025	0.07
1.5705	0.19
1.57075	0.125
1.571	0.045
1.57125	-0.035
1.5715	-0.06
1.57175	-0.155
1.572	-0.21
1.57225	-0.225
1.5725	-0.2
1.57275	-0.215
1.573	-0.265
1.57325	0.07
1.5735	0.865
1.57375	1.495
1.574	0.625
1.57425	-0.44
1.5745	-0.815
1.57475	-0.6
1.575	-0.31
1.57525	-0.175
1.5755	-0.18
1.57575	-0.165
1.576	-0.135
1.57625	-0.135
1.5765	-0.115
1.57675	-0.105
1.577	-0.085
1.57725	-0.06
1.5775	-0.03
1.57775	-0.02
1.578	0.015
1.57825	0.05
1.5785	0.07
1.57875	0.105
1.579	0.165
1.57925	0.2
1.5795	0.205
1.57975	0.235
1.58	0.235
1.58025	0.265
1.5805	0.26
1.58075	0.235
1.581	0.215
1.58125	0.17
1.5815	0.125
1.58175	0.09
1.582	0.025
1.58225	-0.015
1.5825	-0.03
1.58275	-0.035
1.583	-0.04
1.58325	-0.04
1.5835	-0.035
1.58375	-0.04
1.584	-0.02
1.58425	-0.04
1.5845	-0.04
1.58475	-0.03
1.585	-0.045
1.58525	-0.065
1.5855	-0.06
1.58575	-0.06
1.586	-0.09
1.58625	-0.08
1.5865	-0.095
1.58675	-0.085
1.587	-0.105
1.58725	-0.09
1.5875	-0.1
1.58775	-0.105
1.588	-0.115
1.58825	-0.1
1.5885	-0.115
1.58875	-0.11
1.589	-0.135
1.58925	-0.095
1.5895	-0.125
1.58975	-0.105
1.59	-0.085
1.59025	-0.015
1.5905	0.02
1.59075	0.03
1.591	0.135
1.59125	0.16
1.5915	0.105
1.59175	0.03
1.592	-0.05
1.59225	-0.05
1.5925	-0.17
1.59275	-0.205
1.593	-0.215
1.59325	-0.175
1.5935	-0.21
1.59375	-0.215
1.594	0.175
1.59425	1.09
1.5945	1.7
1.59475	0.335
1.595	-0.615
1.59525	-0.705
1.5955	-0.46
1.59575	-0.175
1.596	-0.165
1.59625	-0.145
1.5965	-0.155
1.59675	-0.115
1.597	-0.12
1.59725	-0.105
1.5975	-0.105
1.59775	-0.085
1.598	-0.06
1.59825	-0.015
1.5985	-0.005
1.59875	0.02
1.599	0.05
1.59925	0.08
1.5995	0.105
1.59975	0.18
1.6	0.205
1.60025	0.24
1.6005	0.235
1.60075	0.27
1.601	0.27
1.60125	0.28
1.6015	0.26
1.60175	0.23
1.602	0.175
1.60225	0.135
1.6025	0.09
1.60275	0.045
1.603	0
1.60325	-0.005
1.6035	-0.025
1.60375	-0.025
1.604	-0.025
1.60425	-0.02
1.6045	0
1.60475	-0.005
1.605	-0.005
1.60525	-0.005
1.6055	-0.005
1.60575	-0.01
1.606	-0.025
1.60625	-0.02
1.6065	-0.04
1.60675	-0.04
1.607	-0.04
1.60725	-0.05
1.6075	-0.06
1.60775	-0.05
1.608	-0.065
1.60825	-0.06
1.6085	-0.07
1.60875	-0.06
1.609	-0.09
1.60925	-0.08
1.6095	-0.095
1.60975	-0.085
1.61	-0.1
1.61025	-0.09
1.6105	-0.095
1.61075	-0.085
1.611	-0.1
1.61125	-0.075
1.6115	-0.095
1.61175	-0.08
1.612	-0.075
1.61225	0
1.6125	0.03
1.61275	0.035
1.613	0.135
1.61325	0.145
1.6135	0.07
1.61375	0.015
1.614	-0.045
1.61425	-0.055
1.6145	-0.185
1.61475	-0.19
1.615	-0.22
1.61525	-0.18
1.6155	-0.21
1.61575	-0.185
1.616	0.22
1.61625	1.15
1.6165	1.72
1.61675	0.155
1.617	-0.7
1.61725	-0.66
1.6175	-0.405
1.61775	-0.15
1.618	-0.16
1.61825	-0.135
1.6185	-0.145
1.61875	-0.12
1.619	-0.125
1.61925	-0.09
1.6195	-0.09
1.61975	-0.055
1.62	-0.04
1.62025	-0.015
1.6205	0
1.62075	0.03
1.621	0.05
1.62125	0.095
1.6215	0.11
1.62175	0.165
1.622	0.19
1.62225	0.23
1.6225	0.245
1.62275	0.255
1.623	0.255
1.62325	0.265
1.6235	0.255
1.62375	0.23
1.624	0.185
1.62425	0.145
1.6245	0.1
1.62475	0.06
1.625	0.025
1.62525	0.025
1.6255	0.01
1.62575	0.01
1.626	0.01
1.62625	0.015
1.6265	0.01
1.62675	0.025
1.627	0.02
1.62725	0.02
1.6275	0.02
1.62775	0.015
1.628	0
1.62825	0
1.6285	-0.01
1.62875	-0.015
1.629	-0.02
1.62925	-0.03
1.6295	-0.035
1.62975	-0.035
1.63	-0.045
1.63025	-0.04
1.6305	-0.045
1.63075	-0.045
1.631	-0.055
1.63125	-0.045
1.6315	-0.055
1.63175	-0.045
1.632	-0.06
1.63225	-0.05
1.6325	-0.06
1.63275	-0.055
1.633	-0.08
1.63325	-0.065
1.6335	-0.09
1.63375	-0.075
1.634	-0.09
1.63425	-0.07
1.6345	-0.075
1.63475	-0.065
1.635	-0.08
1.63525	-0.065
1.6355	-0.03
1.63575	0.025
1.636	0.04
1.63625	0.065
1.6365	0.18
1.63675	0.145
1.637	0.055
1.63725	0.015
1.6375	-0.035
1.63775	-0.06
1.638	-0.175
1.63825	-0.17
1.6385	-0.195
1.63875	-0.175
1.639	-0.22
1.63925	-0.115
1.6395	0.355
1.63975	1.24
1.64	1.595
1.64025	-0.115
1.6405	-0.815
1.64075	-0.565
1.641	-0.3
1.64125	-0.13
1.6415	-0.16
1.64175	-0.13
1.642	-0.135
1.64225	-0.11
1.6425	-0.12
1.64275	-0.09
1.643	-0.085
1.64325	-0.055
1.6435	-0.04
1.64375	-0.005
1.644	0
1.64425	0.04
1.6445	0.05
1.64475	0.095
1.645	0.125
1.64525	0.17
1.6455	0.19
1.64575	0.22
1.646	0.23
1.64625	0.245
1.6465	0.25
1.64675	0.26
1.647	0.24
1.64725	0.22
1.6475	0.175
1.64775	0.135
1.648	0.085
1.64825	0.055
1.6485	0.02
1.64875	0.015
1.649	0.01
1.64925	0.01
1.6495	0
1.64975	0
1.65	0
1.65025	0.01
1.6505	0.005
1.65075	0.02
1.651	0.01
1.65125	0
1.6515	-0.01
1.65175	-0.015
1.652	-0.02
1.65225	-0.02
1.6525	-0.025
1.65275	-0.035
1.653	-0.03
1.65325	-0.045
1.6535	-0.05
1.65375	-0.05
1.654	-0.055
1.65425	-0.065
1.6545	-0.065
1.65475	-0.06
1.655	-0.065
1.65525	-0.07
1.6555	-0.06
1.65575	-0.06
1.656	-0.055
1.65625	-0.06
1.6565	-0.065
1.65675	-0.08
1.657	-0.065
1.65725	-0.08
1.6575	-0.065
1.65775	-0.075
1.658	-0.07
1.65825	-0.085
1.6585	-0.07
1.65875	-0.085
1.659	-0.075
1.65925	-0.085
1.6595	-0.06
1.65975	-0.045
1.66	0.02
1.66025	0.04
1.6605	0.055
1.66075	0.18
1.661	0.155
1.66125	0.06
1.6615	0.02
1.66175	-0.025
1.662	-0.055
1.66225	-0.18
1.6625	-0.16
1.66275	-0.17
1.663	-0.165
1.66325	-0.195
1.6635	-0.1
1.66375	0.35
1.664	1.115
1.66425	1.495
1.6645	-0.04
1.66475	-0.73
1.665	-0.62
1.66525	-0.365
1.6655	-0.13
1.66575	-0.15
1.666	-0.135
1.66625	-0.15
1.6665	-0.12
1.66675	-0.13
1.667	-0.105
1.66725	-0.09
1.6675	-0.055
1.66775	-0.06
1.668	-0.035
1.66825	-0.015
1.6685	0.02
1.66875	0.045
1.669	0.065
1.66925	0.095
1.6695	0.145
1.66975	0.18
1.67	0.215
1.67025	0.2
1.6705	0.225
1.67075	0.235
1.671	0.245
1.67125	0.235
1.6715	0.225
1.67175	0.175
1.672	0.13
1.67225	0.09
1.6725	0.05
1.67275	0.035
1.673	0.015
1.67325	0.005
1.6735	0
1.67375	-0.005
1.674	0
1.67425	0
1.6745	0
1.67475	0
1.675	-0.005
1.67525	-0.005
1.6755	-0.02
1.67575	-0.02
1.676	-0.04
1.67625	-0.05
1.6765	-0.06
1.67675	-0.06
1.677	-0.06
1.67725	-0.07
1.6775	-0.065
1.67775	-0.075
1.678	-0.07
1.67825	-0.065
1.6785	-0.075
1.67875	-0.075
1.679	-0.075
1.67925	-0.09
1.6795	-0.075
1.67975	-0.085
1.68	-0.08
1.68025	-0.09
1.6805	-0.075
1.68075	-0.09
1.681	-0.08
1.68125	-0.09
1.6815	-0.08
1.68175	-0.1
1.682	-0.085
1.68225	-0.1
1.6825	-0.075
1.68275	-0.085
1.683	-0.09
1.68325	-0.075
1.6835	-0.015
1.68375	0.025
1.684	0.055
1.68425	0.155
1.6845	0.16
1.68475	0.095
1.685	0.015
1.68525	-0.035
1.6855	-0.05
1.68575	-0.175
1.686	-0.17
1.68625	-0.19
1.6865	-0.175
1.68675	-0.2
1.687	-0.105
1.68725	0.335
1.6875	1.095
1.68775	1.47
1.688	0.065
1.68825	-0.66
1.6885	-0.69
1.68875	-0.44
1.689	-0.185
1.68925	-0.16
1.6895	-0.135
1.68975	-0.135
1.69	-0.115
1.69025	-0.115
1.6905	-0.11
1.69075	-0.095
1.691	-0.055
1.69125	-0.05
1.6915	-0.015
1.69175	-0.005
1.692	0.045
1.69225	0.05
1.6925	0.095
1.69275	0.12
1.693	0.165
1.69325	0.185
1.6935	0.21
1.69375	0.225
1.694	0.245
1.69425	0.24
1.6945	0.24
1.69475	0.235
1.695	0.21
1.69525	0.165
1.6955	0.125
1.69575	0.07
1.696	0.045
1.69625	0.01
1.6965	0.02
1.69675	0.005
1.697	0
1.69725	0
1.6975	0
1.69775	0
1.698	0
1.69825	-0.005
1.6985	-0.01
1.69875	-0.005
1.699	-0.025
1.69925	-0.005
1.6995	-0.04
1.69975	-0.04
1.7	-0.045
1.70025	-0.045
1.7005	-0.04
1.70075	-0.055
1.701	-0.065
1.70125	-0.05
1.7015	-0.065
1.70175	-0.065
1.702	-0.065
1.70225	-0.065
1.7025	-0.07
1.70275	-0.065
1.703	-0.07
1.70325	-0.065
1.7035	-0.07
1.70375	-0.07
1.704	-0.085
1.70425	-0.06
1.7045	-0.09
1.70475	-0.065
1.705	-0.085
1.70525	-0.08
1.7055	-0.085
1.70575	-0.05
1.706	-0.09
1.70625	-0.075
1.7065	-0.055
1.70675	0.005
1.707	0.055
1.70725	0.06
1.7075	0.16
1.70775	0.155
1.708	0.08
1.70825	0.015
1.7085	-0.02
1.70875	-0.045
1.709	-0.17
1.70925	-0.17
1.7095	-0.175
1.70975	-0.16
1.71	-0.2
1.71025	-0.105
1.7105	0.36
1.71075	1.16
1.711	1.55
1.71125	0.07
1.7115	-0.69
1.71175	-0.66
1.712	-0.41
1.71225	-0.155
1.7125	-0.155
1.71275	-0.135
1.713	-0.135
1.71325	-0.105
1.7135	-0.11
1.71375	-0.085
1.714	-0.09
1.71425	-0.065
1.7145	-0.045
1.71475	-0.005
1.715	0
1.71525	0.04
1.7155	0.065
1.71575	0.1
1.716	0.12
1.71625	0.175
1.7165	0.19
1.71675	0.23
1.717	0.255
1.71725	0.27
1.7175	0.265
1.71775	0.275
1.718	0.245
1.71825	0.215
1.7185	0.175
1.71875	0.14
1.719	0.095
1.71925	0.04
1.7195	0.025
1.71975	0.015
1.72	0
1.72025	0
1.7205	0
1.72075	0
1.721	0
1.72125	0
1.7215	0
1.72175	0
1.722	-0.005
1.72225	-0.01
1.7225	-0.01
1.72275	-0.015
1.723	-0.03
1.72325	-0.035
1.7235	-0.045
1.72375	-0.045
1.724	-0.05
1.72425	-0.045
1.7245	-0.065
1.72475	-0.07
1.725	-0.075
1.72525	-0.07
1.7255	-0.09
1.72575	-0.085
1.726	-0.09
1.72625	-0.07
1.7265	-0.085
1.72675	-0.085
1.727	-0.095
1.72725	-0.085
1.7275	-0.09
1.72775	-0.085
1.728	-0.09
1.72825	-0.09
1.7285	-0.1
1.72875	-0.09
1.729	-0.105
1.72925	-0.09
1.7295	-0.1
1.72975	-0.085
1.73	-0.055
1.73025	0
1.7305	0.035
1.73075	0.05
1.731	0.17
1.73125	0.135
1.7315	0.06
1.73175	0.01
1.732	-0.035
1.73225	-0.075
1.7325	-0.19
1.73275	-0.185
1.733	-0.205
1.73325	-0.18
1.7335	-0.225
1.73375	-0.11
1.734	0.38
1.73425	1.215
1.7345	1.545
1.73475	-0.025
1.735	-0.765
1.73525	-0.62
1.7355	-0.37
1.73575	-0.155
1.736	-0.17
1.73625	-0.145
1.7365	-0.16
1.73675	-0.13
1.737	-0.145
1.73725	-0.125
1.7375	-0.12
1.73775	-0.08
1.738	-0.065
1.73825	-0.035
1.7385	-0.02
1.73875	0.01
1.739	0.035
1.73925	0.08
1.7395	0.105
1.73975	0.155
1.74	0.18
1.74025	0.22
1.7405	0.225
1.74075	0.24
1.741	0.235
1.74125	0.245
1.7415	0.225
1.74175	0.2
1.742	0.155
1.74225	0.115
1.7425	0.075
1.74275	0.05
1.743	0.02
1.74325	0
1.7435	-0.01
1.74375	-0.015
1.744	-0.01
1.74425	-0.01
1.7445	-0.005
1.74475	0
1.745	0
1.74525	0
1.7455	0
1.74575	0
1.746	-0.005
1.74625	-0.01
1.7465	-0.02
1.74675	-0.025
1.747	-0.035
1.74725	-0.045
1.7475	-0.055
1.74775	-0.055
1.748	-0.06
1.74825	-0.06
1.7485	-0.06
1.74875	-0.055
1.749	-0.055
1.74925	-0.055
1.7495	-0.065
1.74975	-0.06
1.75	-0.055
1.75025	-0.06
1.7505	-0.065
1.75075	-0.06
1.751	-0.075
1.75125	-0.065
1.7515	-0.07
1.75175	-0.07
1.752	-0.09
1.75225	-0.08
1.7525	-0.095
1.75275	-0.08
1.753	-0.095
1.75325	-0.08
1.7535	-0.095
1.75375	-0.085
1.754	-0.09
1.75425	-0.09
1.7545	-0.1
1.75475	-0.085
1.755	-0.105
1.75525	-0.09
1.7555	-0.045
1.75575	0.005
1.756	0.015
1.75625	0.045
1.7565	0.155
1.75675	0.14
1.757	0.045
1.75725	0.005
1.7575	-0.04
1.75775	-0.085
1.758	-0.2
1.75825	-0.195
1.7585	-0.2
1.75875	-0.2
1.759	-0.24
1.75925	-0.13
1.7595	0.34
1.75975	1.155
1.76	1.47
1.76025	-0.155
1.7605	-0.825
1.76075	-0.59
1.761	-0.35
1.76125	-0.155
1.7615	-0.17
1.76175	-0.14
1.762	-0.155
1.76225	-0.115
1.7625	-0.125
1.76275	-0.09
1.763	-0.095
1.76325	-0.065
1.7635	-0.055
1.76375	-0.015
1.764	-0.005
1.76425	0.035
1.7645	0.045
1.76475	0.09
1.765	0.11
1.76525	0.15
1.7655	0.18
1.76575	0.205
1.766	0.225
1.76625	0.23
1.7665	0.22
1.76675	0.235
1.767	0.23
1.76725	0.2
1.7675	0.17
1.76775	0.12
1.768	0.075
1.76825	0.04
1.7685	0.02
1.76875	0.005
1.769	-0.005
1.76925	-0.005
1.7695	-0.01
1.76975	-0.015
1.77	-0.01
1.77025	0
1.7705	-0.005
1.77075	-0.02
1.771	-0.02
1.77125	-0.015
1.7715	-0.025
1.77175	-0.035
1.772	-0.045
1.77225	-0.045
1.7725	-0.06
1.77275	-0.065
1.773	-0.07
1.77325	-0.055
1.7735	-0.06
1.77375	-0.08
1.774	-0.075
1.77425	-0.09
1.7745	-0.065
1.77475	-0.075
1.775	-0.08
1.77525	-0.08
1.7755	-0.085
1.77575	-0.09
1.776	-0.075
1.77625	-0.085
1.7765	-0.095
1.77675	-0.105
1.777	-0.09
1.77725	-0.095
1.7775	-0.07
1.77775	-0.045
1.778	0.005
1.77825	0.03
1.7785	0.07
1.77875	0.195
1.779	0.145
1.77925	0.05
1.7795	-0.015
1.77975	-0.025
1.78	-0.115
1.78025	-0.18
1.7805	-0.19
1.78075	-0.185
1.781	-0.185
1.78125	-0.215
1.7815	0.01
1.78175	0.575
1.782	1.185
1.78225	0.96
1.7825	-0.16
1.78275	-0.74
1.783	-0.64
1.78325	-0.35
1.7835	-0.175
1.78375	-0.145
1.784	-0.15
1.78425	-0.145
1.7845	-0.105
1.78475	-0.12
1.785	-0.09
1.78525	-0.085
1.7855	-0.07
1.78575	-0.04
1.786	-0.02
1.78625	0.005
1.7865	0.02
1.78675	0.045
1.787	0.08
1.78725	0.115
1.7875	0.14
1.78775	0.165
1.788	0.21
1.78825	0.19
1.7885	0.22
1.78875	0.21
1.789	0.215
1.78925	0.215
1.7895	0.16
1.78975	0.135
1.79	0.1
1.79025	0.05
1.7905	0.035
1.79075	-0.005
1.791	0.005
1.79125	-0.005
1.7915	-0.015
1.79175	-0.02
1.792	-0.01
1.79225	0
1.7925	-0.02
1.79275	-0.005
1.793	-0.04
1.79325	-0.035
1.7935	-0.05
1.79375	-0.04
1.794	-0.055
1.79425	-0.075
1.7945	-0.05
1.79475	-0.075
1.795	-0.09
1.79525	-0.08
1.7955	-0.09
1.79575	-0.08
1.796	-0.075
1.79625	-0.085
1.7965	-0.085
1.79675	-0.095
1.797	-0.095
1.79725	-0.105
1.7975	-0.08
1.79775	-0.115
1.798	-0.1
1.79825	-0.095
1.7985	-0.1
1.79875	-0.075
1.799	-0.005
1.79925	0.01
1.7995	0.055
1.79975	0.185
1.8	0.145
1.80025	0.075
1.8005	-0.005
1.80075	-0.025
1.801	-0.11
1.80125	-0.175
1.8015	-0.18
1.80175	-0.22
1.802	-0.175
1.80225	-0.24
1.8025	-0.03
1.80275	0.53
1.803	1.21
1.80325	1.22
1.8035	-0.105
1.80375	-0.795
1.804	-0.69
1.80425	-0.375
1.8045	-0.165
1.80475	-0.155
1.805	-0.135
1.80525	-0.15
1.8055	-0.12
1.80575	-0.12
1.806	-0.09
1.80625	-0.095
1.8065	-0.05
1.80675	-0.05
1.807	-0.01
1.80725	-0.005
1.8075	0.03
1.80775	0.08
1.808	0.075
1.80825	0.145
1.8085	0.155
1.80875	0.2
1.809	0.2
1.80925	0.24
1.8095	0.235
1.80975	0.245
1.81	0.245
1.81025	0.215
1.8105	0.18
1.81075	0.15
1.811	0.09
1.81125	0.035
1.8115	0.025
1.81175	0
1.812	-0.015
1.81225	-0.03
1.8125	0
1.81275	-0.02
1.813	-0.005
1.81325	-0.025
1.8135	-0.03
1.81375	-0.015
1.814	-0.01
1.81425	-0.035
1.8145	-0.04
1.81475	-0.05
1.815	-0.045
1.81525	-0.04
1.8155	-0.075
1.81575	-0.065
1.816	-0.095
1.81625	-0.085
1.8165	-0.085
1.81675	-0.09
1.817	-0.1
1.81725	-0.1
1.8175	-0.08
1.81775	-0.105
1.818	-0.105
1.81825	-0.1
1.8185	-0.105
1.81875	-0.095
1.819	-0.1
1.81925	-0.09
1.8195	-0.035
1.81975	0.01
1.82	0.035
1.82025	0.07
1.8205	0.19
1.82075	0.125
1.821	0.045
1.82125	-0.035
1.8215	-0.06
1.82175	-0.155
1.822	-0.21
1.82225	-0.225
1.8225	-0.2
1.82275	-0.215
1.823	-0.265
1.82325	0.07
1.8235	0.865
1.82375	1.495
1.824	0.625
1.82425	-0.44
1.8245	-0.815
1.82475	-0.6
1.825	-0.31
1.82525	-0.175
1.8255	-0.18
1.82575	-0.165
1.826	-0.135
1.82625	-0.135
1.8265	-0.115
1.82675	-0.105
1.827	-0.085
1.82725	-0.06
1.8275	-0.03
1.82775	-0.02
1.828	0.015
1.82825	0.05
1.8285	0.07
1.82875	0.105
1.829	0.165
1.82925	0.2
1.8295	0.205
1.82975	0.235
1.83	0.235
1.83025	0.265
1.8305	0.26
1.83075	0.235
1.831	0.215
1.83125	0.17
1.8315	0.125
1.83175	0.09
1.832	0.025
1.83225	-0.015
1.8325	-0.03
1.83275	-0.035
1.833	-0.04
1.83325	-0.04
1.8335	-0.035
1.83375	-0.04
1.834	-0.02
1.83425	-0.04
1.8345	-0.04
1.83475	-0.03
1.835	-0.045
1.83525	-0.065
1.8355	-0.06
1.83575	-0.06
1.836	-0.09
1.83625	-0.08
1.8365	-0.095
1.83675	-0.085
1.837	-0.105
1.83725	-0.09
1.8375	-0.1
1.83775	-0.105
1.838	-0.115
1.83825	-0.1
1.8385	-0.115
1.83875	-0.11
1.839	-0.135
1.83925	-0.095
1.8395	-0.125
1.83975	-0.105
1.84	-0.085
1.84025	-0.015
1.8405	0.02
1.84075	0.03
1.841	0.135
1.84125	0.16
1.8415	0.105
1.84175	0.03
1.842	-0.05
1.84225	-0.05
1.8425	-0.17
1.84275	-0.205
1.843	-0.215
1.84325	-0.175
1.8435	-0.21
1.84375	-0.215
1.844	0.175
1.84425	1.09
1.8445	1.7
1.84475	0.335
1.845	-0.615
1.84525	-0.705
1.8455	-0.46
1.84575	-0.175
1.846	-0.165
1.84625	-0.145
1.8465	-0.155
1.84675	-0.115
1.847	-0.12
1.84725	-0.105
1.8475	-0.105
1.84775	-0.085
1.848	-0.06
1.84825	-0.015
1.8485	-0.005
1.84875	0.02
1.849	0.05
1.84925	0.08
1.8495	0.105
1.84975	0.18
1.85	0.205
1.85025	0.24
1.8505	0.235
1.85075	0.27
1.851	0.27
1.85125	0.28
1.8515	0.26
1.85175	0.23
1.852	0.175
1.85225	0.135
1.8525	0.09
1.85275	0.045
1.853	0
1.85325	-0.005
1.8535	-0.025
1.85375	-0.025
1.854	-0.025
1.85425	-0.02
1.8545	0
1.85475	-0.005
1.855	-0.005
1.85525	-0.005
1.8555	-0.005
1.85575	-0.01
1.856	-0.025
1.85625	-0.02
1.8565	-0.04
1.85675	-0.04
1.857	-0.04
1.85725	-0.05
1.8575	-0.06
1.85775	-0.05
1.858	-0.065
1.85825	-0.06
1.8585	-0.07
1.85875	-0.06
1.859	-0.09
1.85925	-0.08
1.8595	-0.095
1.85975	-0.085
1.86	-0.1
1.86025	-0.09
1.8605	-0.095
1.86075	-0.085
1.861	-0.1
1.86125	-0.075
1.8615	-0.095
1.86175	-0.08
1.862	-0.075
1.86225	0
1.8625	0.03
1.86275	0.035
1.863	0.135
1.86325	0.145
1.8635	0.07
1.86375	0.015
1.864	-0.045
1.86425	-0.055
1.8645	-0.185
1.86475	-0.19
1.865	-0.22
1.86525	-0.18
1.8655	-0.21
1.86575	-0.185
1.866	0.22
1.86625	1.15
1.8665	1.72
1.86675	0.155
1.867	-0.7
1.86725	-0.66
1.8675	-0.405
1.86775	-0.15
1.868	-0.16
1.86825	-0.135
1.8685	-0.145
1.86875	-0.12
1.869	-0.125
1.86925	-0.09
1.8695	-0.09
1.86975	-0.055
1.87	-0.04
1.87025	-0.015
1.8705	0
1.87075	0.03
1.871	0.05
1.87125	0.095
1.8715	0.11
1.87175	0.165
1.872	0.19
1.87225	0.23
1.8725	0.245
1.87275	0.255
1.873	0.255
1.87325	0.265
1.8735	0.255
1.87375	0.23
1.874	0.185
1.87425	0.145
1.8745	0.1
1.87475	0.06
1.875	0.025
1.87525	0.025
1.8755	0.01
1.87575	0.01
1.876	0.01
1.87625	0.015
1.8765	0.01
1.87675	0.025
1.877	0.02
1.87725	0.02
1.8775	0.02
1.87775	0.015
1.878	0
1.87825	0
1.8785	-0.01
1.87875	-0.015
1.879	-0.02
1.87925	-0.03
1.8795	-0.035
1.87975	-0.035
1.88	-0.045
1.88025	-0.04
1.8805	-0.045
1.88075	-0.045
1.881	-0.055
1.88125	-0.045
1.8815	-0.055
1.88175	-0.045
1.882	-0.06
1.88225	-0.05
1.8825	-0.06
1.88275	-0.055
1.883	-0.08
1.88325	-0.065
1.8835	-0.09
1.88375	-0.075
1.884	-0.09
1.88425	-0.07
1.8845	-0.075
1.88475	-0.065
1.885	-0.08
1.88525	-0.065
1.8855	-0.03
1.88575	0.025
1.886	0.04
1.88625	0.065
1.8865	0.18
1.88675	0.145
1.887	0.055
1.88725	0.015
1.8875	-0.035
1.88775	-0.06
1.888	-0.175
1.88825	-0.17
1.8885	-0.195
1.88875	-0.175
1.889	-0.22
1.88925	-0.115
1.8895	0.355
1.88975	1.24
1.89	1.595
1.89025	-0.115
1.8905	-0.815
1.89075	-0.565
1.891	-0.3
1.89125	-0.13
1.8915	-0.16
1.89175	-0.13
1.892	-0.135
1.89225	-0.11
1.8925	-0.12
1.89275	-0.09
1.893	-0.085
1.89325	-0.055
1.8935	-0.04
1.89375	-0.005
1.894	0
1.89425	0.04
1.8945	0.05
1.89475	0.095
1.895	0.125
1.89525	0.17
1.8955	0.19
1.89575	0.22
1.896	0.23
1.89625	0.245
1.8965	0.25
1.89675	0.26
1.897	0.24
1.89725	0.22
1.8975	0.175
1.89775	0.135
1.898	0.085
1.89825	0.055
1.8985	0.02
1.89875	0.015
1.899	0.01
1.89925	0.01
1.8995	0
1.89975	0
1.9	0
1.90025	0.01
1.9005	0.005
1.90075	0.02
1.901	0.01
1.90125	0
1.9015	-0.01
1.90175	-0.015
1.902	-0.02
1.90225	-0.02
1.9025	-0.025
1.90275	-0.035
1.903	-0.03
1.90325	-0.045
1.9035	-0.05
1.90375	-0.05
1.904	-0.055
1.90425	-0.065
1.9045	-0.065
1.90475	-0.06
1.905	-0.065
1.90525	-0.07
1.9055	-0.06
1.90575	-0.06
1.906	-0.055
1.90625	-0.06
1.9065	-0.065
1.90675	-0.08
1.907	-0.065
1.90725	-0.08
1.9075	-0.065
1.90775	-0.075
1.908	-0.07
1.90825	-0.085
1.9085	-0.07
1.90875	-0.085
1.909	-0.075
1.90925	-0.085
1.9095	-0.06
1.90975	-0.045
1.91	0.02
1.91025	0.04
1.9105	0.055
1.91075	0.18
1.911	0.155
1.91125	0.06
1.9115	0.02
1.91175	-0.025
1.912	-0.055
1.91225	-0.18
1.9125	-0.16
1.91275	-0.17
1.913	-0.165
1.91325	-0.195
1.9135	-0.1
1.91375	0.35
1.914	1.115
1.91425	1.495
1.9145	-0.04
1.91475	-0.73
1.915	-0.62
1.91525	-0.365
1.9155	-0.13
1.91575	-0.15
1.916	-0.135
1.91625	-0.15
1.9165	-0.12
1.91675	-0.13
1.917	-0.105
1.91725	-0.09
1.9175	-0.055
1.91775	-0.06
1.918	-0.035
1.91825	-0.015
1.9185	0.02
1.91875	0.045
1.919	0.065
1.91925	0.095
1.9195	0.145
1.91975	0.18
1.92	0.215
1.92025	0.2
1.9205	0.225
1.92075	0.235
1.921	0.245
1.92125	0.235
1.9215	0.225
1.92175	0.175
1.922	0.13
1.92225	0.09
1.9225	0.05
1.92275	0.035
1.923	0.015
1.92325	0.005
1.9235	0
1.92375	-0.005
1.924	0
1.92425	0
1.9245	0
1.92475	0
1.925	-0.005
1.92525	-0.005
1.9255	-0.02
1.92575	-0.02
1.926	-0.04
1.92625	-0.05
1.9265	-0.06
1.92675	-0.06
1.927	-0.06
1.92725	-0.07
1.9275	-0.065
1.92775	-0.075
1.928	-0.07
1.92825	-0.065
1.9285	-0.075
1.92875	-0.075
1.929	-0.075
1.92925	-0.09
1.9295	-0.075
1.92975	-0.085
1.93	-0.08
1.93025	-0.09
1.9305	-0.075
1.93075	-0.09
1.931	-0.08
1.93125	-0.09
1.9315	-0.08
1.93175	-0.1
1.932	-0.085
1.93225	-0.1
1.9325	-0.075
1.93275	-0.085
1.933	-0.09
1.93325	-0.075
1.9335	-0.015
1.93375	0.025
1.934	0.055
1.93425	0.155
1.9345	0.16
1.93475	0.095
1.935	0.015
1.93525	-0.035
1.9355	-0.05
1.93575	-0.175
1.936	-0.17
1.93625	-0.19
1.9365	-0.175
1.93675	-0.2
1.937	-0.105
1.93725	0.335
1.9375	1.095
1.93775	1.47
1.938	0.065
1.93825	-0.66
1.9385	-0.69
1.93875	-0.44
1.939	-0.185
1.93925	-0.16
1.9395	-0.135
1.93975	-0.135
1.94	-0.115
1.94025	-0.115
1.9405	-0.11
1.94075	-0.095
1.941	-0.055
1.94125	-0.05
1.9415	-0.015
1.94175	-0.005
1.942	0.045
1.94225	0.05
1.9425	0.095
1.94275	0.12
1.943	0.165
1.94325	0.185
1.9435	0.21
1.94375	0.225
1.944	0.245
1.94425	0.24
1.9445	0.24
1.94475	0.235
1.945	0.21
1.94525	0.165
1.9455	0.125
1.94575	0.07
1.946	0.045
1.94625	0.01
1.9465	0.02
1.94675	0.005
1.947	0
1.94725	0
1.9475	0
1.94775	0
1.948	0
1.94825	-0.005
1.9485	-0.01
1.94875	-0.005
1.949	-0.025
1.94925	-0.005
1.9495	-0.04
1.94975	-0.04
1.95	-0.045
1.95025	-0.045
1.9505	-0.04
1.95075	-0.055
1.951	-0.065
1.95125	-0.05
1.9515	-0.065
1.95175	-0.065
1.952	-0.065
1.95225	-0.065
1.9525	-0.07
1.95275	-0.065
1.953	-0.07
1.95325	-0.065
1.9535	-0.07
1.95375	-0.07
1.954	-0.085
1.95425	-0.06
1.9545	-0.09
1.95475	-0.065
1.955	-0.085
1.95525	-0.08
1.9555	-0.085
1.95575	-0.05
1.956	-0.09
1.95625	-0.075
1.9565	-0.055
1.95675	0.005
1.957	0.055
1.95725	0.06
1.9575	0.16
1.95775	0.155
1.958	0.08
1.95825	0.015
1.9585	-0.02
1.95875	-0.045
1.959	-0.17
1.95925	-0.17
1.9595	-0.175
1.95975	-0.16
1.96	-0.2
1.96025	-0.105
1.9605	0.36
1.96075	1.16
1.961	1.55
1.96125	0.07
1.9615	-0.69
1.96175	-0.66
1.962	-0.41
1.96225	-0.155
1.9625	-0.155
1.96275	-0.135
1.963	-0.135
1.96325	-0.105
1.9635	-0.11
1.96375	-0.085
1.964	-0.09
1.96425	-0.065
1.9645	-0.045
1.96475	-0.005
1.965	0
1.96525	0.04
1.9655	0.065
1.96575	0.1
1.966	0.12
1.96625	0.175
1.9665	0.19
1.96675	0.23
1.967	0.255
1.96725	0.27
1.9675	0.265
1.96775	0.275
1.968	0.245
1.96825	0.215
1.9685	0.175
1.96875	0.14
1.969	0.095
1.96925	0.04
1.9695	0.025
1.96975	0.015
1.97	0
1.97025	0
1.9705	0
1.97075	0
1.971	0
1.97125	0
1.9715	0
1.97175	0
1.972	-0.005
1.97225	-0.01
1.9725	-0.01
1.97275	-0.015
1.973	-0.03
1.97325	-0.035
1.9735	-0.045
1.97375	-0.045
1.974	-0.05
1.97425	-0.045
1.9745	-0.065
1.97475	-0.07
1.975	-0.075
1.97525	-0.07
1.9755	-0.09
1.97575	-0.085
1.976	-0.09
1.97625	-0.07
1.9765	-0.085
1.97675	-0.085
1.977	-0.095
1.97725	-0.085
1.9775	-0.09
1.97775	-0.085
1.978	-0.09
1.97825	-0.09
1.9785	-0.1
1.97875	-0.09
1.979	-0.105
1.97925	-0.09
1.9795	-0.1
1.97975	-0.085
1.98	-0.055
1.98025	0
1.9805	0.035
1.98075	0.05
1.981	0.17
1.98125	0.135
1.9815	0.06
1.98175	0.01
1.982	-0.035
1.98225	-0.075
1.9825	-0.19
1.98275	-0.185
1.983	-0.205
1.98325	-0.18
1.9835	-0.225
1.98375	-0.11
1.984	0.38
1.98425	1.215
1.9845	1.545
1.98475	-0.025
1.985	-0.765
1.98525	-0.62
1.9855	-0.37
1.98575	-0.155
1.986	-0.17
1.98625	-0.145
1.9865	-0.16
1.98675	-0.13
1.987	-0.145
1.98725	-0.125
1.9875	-0.12
1.98775	-0.08
1.988	-0.065
1.98825	-0.035
1.9885	-0.02
1.98875	0.01
1.989	0.035
1.98925	0.08
1.9895	0.105
1.98975	0.155
1.99	0.18
1.99025	0.22
1.9905	0.225
1.99075	0.24
1.991	0.235
1.99125	0.245
1.9915	0.225
1.99175	0.2
1.992	0.155
1.99225	0.115
1.9925	0.075
1.99275	0.05
1.993	0.02
1.99325	0
1.9935	-0.01
1.99375	-0.015
1.994	-0.01
1.99425	-0.01
1.9945	-0.005
1.99475	0
1.995	0
1.99525	0
1.9955	0
1.99575	0
1.996	-0.005
1.99625	-0.01
1.9965	-0.02
1.99675	-0.025
1.997	-0.035
1.99725	-0.045
1.9975	-0.055
1.99775	-0.055
1.998	-0.06
1.99825	-0.06
1.9985	-0.06
1.99875	-0.055
1.999	-0.055
1.99925	-0.055
1.9995	-0.065
1.99975	-0.06
2	-0.055
2.00025	-0.06
2.0005	-0.065
2.00075	-0.06
2.001	-0.075
2.00125	-0.065
2.0015	-0.07
2.00175	-0.07
2.002	-0.09
2.00225	-0.08
2.0025	-0.095
2.00275	-0.08
2.003	-0.095
2.00325	-0.08
2.0035	-0.095
2.00375	-0.085
2.004	-0.09
2.00425	-0.09
2.0045	-0.1
2.00475	-0.085
2.005	-0.105
2.00525	-0.09
2.0055	-0.045
2.00575	0.005
2.006	0.015
2.00625	0.045
2.0065	0.155
2.00675	0.14
2.007	0.045
2.00725	0.005
2.0075	-0.04
2.00775	-0.085
2.008	-0.2
2.00825	-0.195
2.0085	-0.2
2.00875	-0.2
2.009	-0.24
2.00925	-0.13
2.0095	0.34
2.00975	1.155
2.01	1.47
2.01025	-0.155
2.0105	-0.825
2.01075	-0.59
2.011	-0.35
2.01125	-0.155
2.0115	-0.17
2.01175	-0.14
2.012	-0.155
2.01225	-0.115
2.0125	-0.125
2.01275	-0.09
2.013	-0.095
2.01325	-0.065
2.0135	-0.055
2.01375	-0.015
2.014	-0.005
2.01425	0.035
2.0145	0.045
2.01475	0.09
2.015	0.11
2.01525	0.15
2.0155	0.18
2.01575	0.205
2.016	0.225
2.01625	0.23
2.0165	0.22
2.01675	0.235
2.017	0.23
2.01725	0.2
2.0175	0.17
2.01775	0.12
2.018	0.075
2.01825	0.04
2.0185	0.02
2.01875	0.005
2.019	-0.005
2.01925	-0.005
2.0195	-0.01
2.01975	-0.015
2.02	-0.01
2.02025	0
2.0205	-0.005
2.02075	-0.02
2.021	-0.02
2.02125	-0.015
2.0215	-0.025
2.02175	-0.035
2.022	-0.045
2.02225	-0.045
2.0225	-0.06
2.02275	-0.065
2.023	-0.07
2.02325	-0.055
2.0235	-0.06
2.02375	-0.08
2.024	-0.075
2.02425	-0.09
2.0245	-0.065
2.02475	-0.075
2.025	-0.08
2.02525	-0.08
2.0255	-0.085
2.02575	-0.09
2.026	-0.075
2.02625	-0.085
2.0265	-0.095
2.02675	-0.105
2.027	-0.09
2.02725	-0.095
2.0275	-0.07
2.02775	-0.045
2.028	0.005
2.02825	0.03
2.0285	0.07
2.02875	0.195
2.029	0.145
2.02925	0.05
2.0295	-0.015
2.02975	-0.025
2.03	-0.115
2.03025	-0.18
2.0305	-0.19
2.03075	-0.185
2.031	-0.185
2.03125	-0.215
2.0315	0.01
2.03175	0.575
2.032	1.185
2.03225	0.96
2.0325	-0.16
2.03275	-0.74
2.033	-0.64
2.03325	-0.35
2.0335	-0.175
2.03375	-0.145
2.034	-0.15
2.03425	-0.145
2.0345	-0.105
2.03475	-0.12
2.035	-0.09
2.03525	-0.085
2.0355	-0.07
2.03575	-0.04
2.036	-0.02
2.03625	0.005
2.0365	0.02
2.03675	0.045
2.037	0.08
2.03725	0.115
2.0375	0.14
2.03775	0.165
2.038	0.21
2.03825	0.19
2.0385	0.22
2.03875	0.21
2.039	0.215
2.03925	0.215
2.0395	0.16
2.03975	0.135
2.04	0.1
2.04025	0.05
2.0405	0.035
2.04075	-0.005
2.041	0.005
2.04125	-0.005
2.0415	-0.015
2.04175	-0.02
2.042	-0.01
2.04225	0
2.0425	-0.02
2.04275	-0.005
2.043	-0.04
2.04325	-0.035
2.0435	-0.05
2.04375	-0.04
2.044	-0.055
2.04425	-0.075
2.0445	-0.05
2.04475	-0.075
2.045	-0.09
2.04525	-0.08
2.0455	-0.09
2.04575	-0.08
2.046	-0.075
2.04625	-0.085
2.0465	-0.085
2.04675	-0.095
2.047	-0.095
2.04725	-0.105
2.0475	-0.08
2.04775	-0.115
2.048	-0.1
2.04825	-0.095
2.0485	-0.1
2.04875	-0.075
2.049	-0.005
2.04925	0.01
2.0495	0.055
2.04975	0.185
2.05	0.145
2.05025	0.075
2.0505	-0.005
2.05075	-0.025
2.051	-0.11
2.05125	-0.175
2.0515	-0.18
2.05175	-0.22
2.052	-0.175
2.05225	-0.24
2.0525	-0.03
2.05275	0.53
2.053	1.21
2.05325	1.22
2.0535	-0.105
2.05375	-0.795
2.054	-0.69
2.05425	-0.375
2.0545	-0.165
2.05475	-0.155
2.055	-0.135
2.05525	-0.15
2.0555	-0.12
2.05575	-0.12
2.056	-0.09
2.05625	-0.095
2.0565	-0.05
2.05675	-0.05
2.057	-0.01
2.05725	-0.005
2.0575	0.03
2.05775	0.08
2.058	0.075
2.05825	0.145
2.0585	0.155
2.05875	0.2
2.059	0.2
2.05925	0.24
2.0595	0.235
2.05975	0.245
2.06	0.245
2.06025	0.215
2.0605	0.18
2.06075	0.15
2.061	0.09
2.06125	0.035
2.0615	0.025
2.06175	0
2.062	-0.015
2.06225	-0.03
2.0625	0
2.06275	-0.02
2.063	-0.005
2.06325	-0.025
2.0635	-0.03
2.06375	-0.015
2.064	-0.01
2.06425	-0.035
2.0645	-0.04
2.06475	-0.05
2.065	-0.045
2.06525	-0.04
2.0655	-0.075
2.06575	-0.065
2.066	-0.095
2.06625	-0.085
2.0665	-0.085
2.06675	-0.09
2.067	-0.1
2.06725	-0.1
2.0675	-0.08
2.06775	-0.105
2.068	-0.105
2.06825	-0.1
2.0685	-0.105
2.06875	-0.095
2.069	-0.1
2.06925	-0.09
2.0695	-0.035
2.06975	0.01
2.07	0.035
2.07025	0.07
2.0705	0.19
2.07075	0.125
2.071	0.045
2.07125	-0.035
2.0715	-0.06
2.07175	-0.155
2.072	-0.21
2.07225	-0.225
2.0725	-0.2
2.07275	-0.215
2.073	-0.265
2.07325	0.07
2.0735	0.865
2.07375	1.495
2.074	0.625
2.07425	-0.44
2.0745	-0.815
2.07475	-0.6
2.075	-0.31
2.07525	-0.175
2.0755	-0.18
2.07575	-0.165
2.076	-0.135
2.07625	-0.135
2.0765	-0.115
2.07675	-0.105
2.077	-0.085
2.07725	-0.06
2.0775	-0.03
2.07775	-0.02
2.078	0.015
2.07825	0.05
2.0785	0.07
2.07875	0.105
2.079	0.165
2.07925	0.2
2.0795	0.205
2.07975	0.235
2.08	0.235
2.08025	0.265
2.0805	0.26
2.08075	0.235
2.081	0.215
2.08125	0.17
2.0815	0.125
2.08175	0.09
2.082	0.025
2.08225	-0.015
2.0825	-0.03
2.08275	-0.035
2.083	-0.04
2.08325	-0.04
2.0835	-0.035
2.08375	-0.04
2.084	-0.02
2.08425	-0.04
2.0845	-0.04
2.08475	-0.03
2.085	-0.045
2.08525	-0.065
2.0855	-0.06
2.08575	-0.06
2.086	-0.09
2.08625	-0.08
2.0865	-0.095
2.08675	-0.085
2.087	-0.105
2.08725	-0.09
2.0875	-0.1
2.08775	-0.105
2.088	-0.115
2.08825	-0.1
2.0885	-0.115
2.08875	-0.11
2.089	-0.135
2.08925	-0.095
2.0895	-0.125
2.08975	-0.105
2.09	-0.085
2.09025	-0.015
2.0905	0.02
2.09075	0.03
2.091	0.135
2.09125	0.16
2.0915	0.105
2.09175	0.03
2.092	-0.05
2.09225	-0.05
2.0925	-0.17
2.09275	-0.205
2.093	-0.215
2.09325	-0.175
2.0935	-0.21
2.09375	-0.215
2.094	0.175
2.09425	1.09
2.0945	1.7
2.09475	0.335
2.095	-0.615
2.09525	-0.705
2.0955	-0.46
2.09575	-0.175
2.096	-0.165
2.09625	-0.145
2.0965	-0.155
2.09675	-0.115
2.097	-0.12
2.09725	-0.105
2.0975	-0.105
2.09775	-0.085
2.098	-0.06
2.09825	-0.015
2.0985	-0.005
2.09875	0.02
2.099	0.05
2.09925	0.08
2.0995	0.105
2.09975	0.18
2.1	0.205
2.10025	0.24
2.1005	0.235
2.10075	0.27
2.101	0.27
2.10125	0.28
2.1015	0.26
2.10175	0.23
2.102	0.175
2.10225	0.135
2.1025	0.09
2.10275	0.045
2.103	0
2.10325	-0.005
2.1035	-0.025
2.10375	-0.025
2.104	-0.025
2.10425	-0.02
2.1045	0
2.10475	-0.005
2.105	-0.005
2.10525	-0.005
2.1055	-0.005
2.10575	-0.01
2.106	-0.025
2.10625	-0.02
2.1065	-0.04
2.10675	-0.04
2.107	-0.04
2.10725	-0.05
2.1075	-0.06
2.10775	-0.05
2.108	-0.065
2.10825	-0.06
2.1085	-0.07
2.10875	-0.06
2.109	-0.09
2.10925	-0.08
2.1095	-0.095
2.10975	-0.085
2.11	-0.1
2.11025	-0.09
2.1105	-0.095
2.11075	-0.085
2.111	-0.1
2.11125	-0.075
2.1115	-0.095
2.11175	-0.08
2.112	-0.075
2.11225	0
2.1125	0.03
2.11275	0.035
2.113	0.135
2.11325	0.145
2.1135	0.07
2.11375	0.015
2.114	-0.045
2.11425	-0.055
2.1145	-0.185
2.11475	-0.19
2.115	-0.22
2.11525	-0.18
2.1155	-0.21
2.11575	-0.185
2.116	0.22
2.11625	1.15
2.1165	1.72
2.11675	0.155
2.117	-0.7
2.11725	-0.66
2.1175	-0.405
2.11775	-0.15
2.118	-0.16
2.11825	-0.135
2.1185	-0.145
2.11875	-0.12
2.119	-0.125
2.11925	-0.09
2.1195	-0.09
2.11975	-0.055
2.12	-0.04
2.12025	-0.015
2.1205	0
2.12075	0.03
2.121	0.05
2.12125	0.095
2.1215	0.11
2.12175	0.165
2.122	0.19
2.12225	0.23
2.1225	0.245
2.12275	0.255
2.123	0.255
2.12325	0.265
2.1235	0.255
2.12375	0.23
2.124	0.185
2.12425	0.145
2.1245	0.1
2.12475	0.06
2.125	0.025
2.12525	0.025
2.1255	0.01
2.12575	0.01
2.126	0.01
2.12625	0.015
2.1265	0.01
2.12675	0.025
2.127	0.02
2.12725	0.02
2.1275	0.02
2.12775	0.015
2.128	0
2.12825	0
2.1285	-0.01
2.12875	-0.015
2.129	-0.02
2.12925	-0.03
2.1295	-0.035
2.12975	-0.035
2.13	-0.045
2.13025	-0.04
2.1305	-0.045
2.13075	-0.045
2.131	-0.055
2.13125	-0.045
2.1315	-0.055
2.13175	-0.045
2.132	-0.06
2.13225	-0.05
2.1325	-0.06
2.13275	-0.055
2.133	-0.08
2.13325	-0.065
2.1335	-0.09
2.13375	-0.075
2.134	-0.09
2.13425	-0.07
2.1345	-0.075
2.13475	-0.065
2.135	-0.08
2.13525	-0.065
2.1355	-0.03
2.13575	0.025
2.136	0.04
2.13625	0.065
2.1365	0.18
2.13675	0.145
2.137	0.055
2.13725	0.015
2.1375	-0.035
2.13775	-0.06
2.138	-0.175
2.13825	-0.17
2.1385	-0.195
2.13875	-0.175
2.139	-0.22
2.13925	-0.115
2.1395	0.355
2.13975	1.24
2.14	1.595
2.14025	-0.115
2.1405	-0.815
2.14075	-0.565
2.141	-0.3
2.14125	-0.13
2.1415	-0.16
2.14175	-0.13
2.142	-0.135
2.14225	-0.11
2.1425	-0.12
2.14275	-0.09
2.143	-0.085
2.14325	-0.055
2.1435	-0.04
2.14375	-0.005
2.144	0
2.14425	0.04
2.1445	0.05
2.14475	0.095
2.145	0.125
2.14525	0.17
2.1455	0.19
2.14575	0.22
2.146	0.23
2.14625	0.245
2.1465	0.25
2.14675	0.26
2.147	0.24
2.14725	0.22
2.1475	0.175
2.14775	0.135
2.148	0.085
2.14825	0.055
2.1485	0.02
2.14875	0.015
2.149	0.01
2.14925	0.01
2.1495	0
2.14975	0
2.15	0
2.15025	0.01
2.1505	0.005
2.15075	0.02
2.151	0.01
2.15125	0
2.1515	-0.01
2.15175	-0.015
2.152	-0.02
2.15225	-0.02
2.1525	-0.025
2.15275	-0.035
2.153	-0.03
2.15325	-0.045
2.1535	-0.05
2.15375	-0.05
2.154	-0.055
2.15425	-0.065
2.1545	-0.065
2.15475	-0.06
2.155	-0.065
2.15525	-0.07
2.1555	-0.06
2.15575	-0.06
2.156	-0.055
2.15625	-0.06
2.1565	-0.065
2.15675	-0.08
2.157	-0.065
2.15725	-0.08
2.1575	-0.065
2.15775	-0.075
2.158	-0.07
2.15825	-0.085
2.1585	-0.07
2.15875	-0.085
2.159	-0.075
2.15925	-0.085
2.1595	-0.06
2.15975	-0.045
2.16	0.02
2.16025	0.04
2.1605	0.055
2.16075	0.18
2.161	0.155
2.16125	0.06
2.1615	0.02
2.16175	-0.025
2.162	-0.055
2.16225	-0.18
2.1625	-0.16
2.16275	-0.17
2.163	-0.165
2.16325	-0.195
2.1635	-0.1
2.16375	0.35
2.164	1.115
2.16425	1.495
2.1645	-0.04
2.16475	-0.73
2.165	-0.62
2.16525	-0.365
2.1655	-0.13
2.16575	-0.15
2.166	-0.135
2.16625	-0.15
2.1665	-0.12
2.16675	-0.13
2.167	-0.105
2.16725	-0.09
2.1675	-0.055
2.16775	-0.06
2.168	-0.035
2.16825	-0.015
2.1685	0.02
2.16875	0.045
2.169	0.065
2.16925	0.095
2.1695	0.145
2.16975	0.18
2.17	0.215
2.17025	0.2
2.1705	0.225
2.17075	0.235
2.171	0.245
2.17125	0.235
2.1715	0.225
2.17175	0.175
2.172	0.13
2.17225	0.09
2.1725	0.05
2.17275	0.035
2.173	0.015
2.17325	0.005
2.1735	0
2.17375	-0.005
2.174	0
2.17425	0
2.1745	0
2.17475	0
2.175	-0.005
2.17525	-0.005
2.1755	-0.02
2.17575	-0.02
2.176	-0.04
2.17625	-0.05
2.1765	-0.06
2.17675	-0.06
2.177	-0.06
2.17725	-0.07
2.1775	-0.065
2.17775	-0.075
2.178	-0.07
2.17825	-0.065
2.1785	-0.075
2.17875	-0.075
2.179	-0.075
2.17925	-0.09
2.1795	-0.075
2.17975	-0.085
2.18	-0.08
2.18025	-0.09
2.1805	-0.075
2.18075	-0.09
2.181	-0.08
2.18125	-0.09
2.1815	-0.08
2.18175	-0.1
2.182	-0.085
2.18225	-0.1
2.1825	-0.075
2.18275	-0.085
2.183	-0.09
2.18325	-0.075
2.1835	-0.015
2.18375	0.025
2.184	0.055
2.18425	0.155
2.1845	0.16
2.18475	0.095
2.185	0.015
2.18525	-0.035
2.1855	-0.05
2.18575	-0.175
2.186	-0.17
2.18625	-0.19
2.1865	-0.175
2.18675	-0.2
2.187	-0.105
2.18725	0.335
2.1875	1.095
2.18775	1.47
2.188	0.065
2.18825	-0.66
2.1885	-0.69
2.18875	-0.44
2.189	-0.185
2.18925	-0.16
2.1895	-0.135
2.18975	-0.135
2.19	-0.115
2.19025	-0.115
2.1905	-0.11
2.19075	-0.095
2.191	-0.055
2.19125	-0.05
2.1915	-0.015
2.19175	-0.005
2.192	0.045
2.19225	0.05
2.1925	0.095
2.19275	0.12
2.193	0.165
2.19325	0.185
2.1935	0.21
2.19375	0.225
2.194	0.245
2.19425	0.24
2.1945	0.24
2.19475	0.235
2.195	0.21
2.19525	0.165
2.1955	0.125
2.19575	0.07
2.196	0.045
2.19625	0.01
2.1965	0.02
2.19675	0.005
2.197	0
2.19725	0
2.1975	0
2.19775	0
2.198	0
2.19825	-0.005
2.1985	-0.01
2.19875	-0.005
2.199	-0.025
2.19925	-0.005
2.1995	-0.04
2.19975	-0.04
2.2	-0.045
2.20025	-0.045
2.2005	-0.04
2.20075	-0.055
2.201	-0.065
2.20125	-0.05
2.2015	-0.065
2.20175	-0.065
2.202	-0.065
2.20225	-0.065
2.2025	-0.07
2.20275	-0.065
2.203	-0.07
2.20325	-0.065
2.2035	-0.07
2.20375	-0.07
2.204	-0.085
2.20425	-0.06
2.2045	-0.09
2.20475	-0.065
2.205	-0.085
2.20525	-0.08
2.2055	-0.085
2.20575	-0.05
2.206	-0.09
2.20625	-0.075
2.2065	-0.055
2.20675	0.005
2.207	0.055
2.20725	0.06
2.2075	0.16
2.20775	0.155
2.208	0.08
2.20825	0.015
2.2085	-0.02
2.20875	-0.045
2.209	-0.17
2.20925	-0.17
2.2095	-0.175
2.20975	-0.16
2.21	-0.2
2.21025	-0.105
2.2105	0.36
2.21075	1.16
2.211	1.55
2.21125	0.07
2.2115	-0.69
2.21175	-0.66
2.212	-0.41
2.21225	-0.155
2.2125	-0.155
2.21275	-0.135
2.213	-0.135
2.21325	-0.105
2.2135	-0.11
2.21375	-0.085
2.214	-0.09
2.21425	-0.065
2.2145	-0.045
2.21475	-0.005
2.215	0
2.21525	0.04
2.2155	0.065
2.21575	0.1
2.216	0.12
2.21625	0.175
2.2165	0.19
2.21675	0.23
2.217	0.255
2.21725	0.27
2.2175	0.265
2.21775	0.275
2.218	0.245
2.21825	0.215
2.2185	0.175
2.21875	0.14
2.219	0.095
2.21925	0.04
2.2195	0.025
2.21975	0.015
2.22	0
2.22025	0
2.2205	0
2.22075	0
2.221	0
2.22125	0
2.2215	0
2.22175	0
2.222	-0.005
2.22225	-0.01
2.2225	-0.01
2.22275	-0.015
2.223	-0.03
2.22325	-0.035
2.2235	-0.045
2.22375	-0.045
2.224	-0.05
2.22425	-0.045
2.2245	-0.065
2.22475	-0.07
2.225	-0.075
2.22525	-0.07
2.2255	-0.09
2.22575	-0.085
2.226	-0.09
2.22625	-0.07
2.2265	-0.085
2.22675	-0.085
2.227	-0.095
2.22725	-0.085
2.2275	-0.09
2.22775	-0.085
2.228	-0.09
2.22825	-0.09
2.2285	-0.1
2.22875	-0.09
2.229	-0.105
2.22925	-0.09
2.2295	-0.1
2.22975	-0.085
2.23	-0.055
2.23025	0
2.2305	0.035
2.23075	0.05
2.231	0.17
2.23125	0.135
2.2315	0.06
2.23175	0.01
2.232	-0.035
2.23225	-0.075
2.2325	-0.19
2.23275	-0.185
2.233	-0.205
2.23325	-0.18
2.2335	-0.225
2.23375	-0.11
2.234	0.38
2.23425	1.215
2.2345	1.545
2.23475	-0.025
2.235	-0.765
2.23525	-0.62
2.2355	-0.37
2.23575	-0.155
2.236	-0.17
2.23625	-0.145
2.2365	-0.16
2.23675	-0.13
2.237	-0.145
2.23725	-0.125
2.2375	-0.12
2.23775	-0.08
2.238	-0.065
2.23825	-0.035
2.2385	-0.02
2.23875	0.01
2.239	0.035
2.23925	0.08
2.2395	0.105
2.23975	0.155
2.24	0.18
2.24025	0.22
2.2405	0.225
2.24075	0.24
2.241	0.235
2.24125	0.245
2.2415	0.225
2.24175	0.2
2.242	0.155
2.24225	0.115
2.2425	0.075
2.24275	0.05
2.243	0.02
2.24325	0
2.2435	-0.01
2.24375	-0.015
2.244	-0.01
2.24425	-0.01
2.2445	-0.005
2.24475	0
2.245	0
2.24525	0
2.2455	0
2.24575	0
2.246	-0.005
2.24625	-0.01
2.2465	-0.02
2.24675	-0.025
2.247	-0.035
2.24725	-0.045
2.2475	-0.055
2.24775	-0.055
2.248	-0.06
2.24825	-0.06
2.2485	-0.06
2.24875	-0.055
2.249	-0.055
2.24925	-0.055
2.2495	-0.065
2.24975	-0.06
2.25	-0.055
2.25025	-0.06
2.2505	-0.065
2.25075	-0.06
2.251	-0.075
2.25125	-0.065
2.2515	-0.07
2.25175	-0.07
2.252	-0.09
2.25225	-0.08
2.2525	-0.095
2.25275	-0.08
2.253	-0.095
2.25325	-0.08
2.2535	-0.095
2.25375	-0.085
2.254	-0.09
2.25425	-0.09
2.2545	-0.1
2.25475	-0.085
2.255	-0.105
2.25525	-0.09
2.2555	-0.045
2.25575	0.005
2.256	0.015
2.25625	0.045
2.2565	0.155
2.25675	0.14
2.257	0.045
2.25725	0.005
2.2575	-0.04
2.25775	-0.085
2.258	-0.2
2.25825	-0.195
2.2585	-0.2
2.25875	-0.2
2.259	-0.24
2.25925	-0.13
2.2595	0.34
2.25975	1.155
2.26	1.47
2.26025	-0.155
2.2605	-0.825
2.26075	-0.59
2.261	-0.35
2.26125	-0.155
2.2615	-0.17
2.26175	-0.14
2.262	-0.155
2.26225	-0.115
2.2625	-0.125
2.26275	-0.09
2.263	-0.095
2.26325	-0.065
2.2635	-0.055
2.26375	-0.015
2.264	-0.005
2.26425	0.035
2.2645	0.045
2.26475	0.09
2.265	0.11
2.26525	0.15
2.2655	0.18
2.26575	0.205
2.266	0.225
2.26625	0.23
2.2665	0.22
2.26675	0.235
2.267	0.23
2.26725	0.2
2.2675	0.17
2.26775	0.12
2.268	0.075
2.26825	0.04
2.2685	0.02
2.26875	0.005
2.269	-0.005
2.26925	-0.005
2.2695	-0.01
2.26975	-0.015
2.27	-0.01
2.27025	0
2.2705	-0.005
2.27075	-0.02
2.271	-0.02
2.27125	-0.015
2.2715	-0.025
2.27175	-0.035
2.272	-0.045
2.27225	-0.045
2.2725	-0.06
